-8.295873854383831181e-02
-7.988491091876523398e-02
-9.625756948697740401e-02
-8.969742894760160401e-02
-7.784666321748466566e-02
-4.372836812845231486e-02
-3.160578383296770710e-02
-1.862978906865154008e-02
-4.349711991522938609e-02
-4.923116895788470088e-02
-5.412443350935111641e-02
-5.555335940718711396e-02
-5.534549075988109967e-02
-4.335780551870765942e-02
-4.456004887984796325e-02
-4.686574755229630518e-02
-1.233034452565558159e-02
-3.666786966915358548e-02
-4.382180756144172379e-02
-4.950592515603327581e-02
-5.754772515982721492e-02
-6.875212659487030253e-02
-7.741753318432334496e-02
-7.871969216065585750e-02
-9.078686766323904034e-02
-1.021293429011507492e-01
-1.036832639496484548e-01
-7.082674073135025727e-02
-6.346062680919971333e-02
-9.307044271657990975e-02
-1.349926771848094786e-01
-8.675909719317162483e-02
-4.213933787896354671e-02
-5.556902836785272692e-02
-5.634811023911842631e-02
-6.347174634519993364e-02
-5.900238605250217316e-02
-4.522867551293992261e-02
-3.407281631378433762e-02
-5.321881230437167098e-02
-5.999073518117265663e-02
-3.507492262473372452e-02
-5.123859569536889924e-02
-5.520945693283399458e-02
-2.401062485873944191e-02
-2.709537216284388372e-02
-1.602728991343713855e-02
-2.331410276135539861e-02
-6.019410723726333762e-02
-7.277276909021246354e-02
-5.229819508252991217e-02
-2.085958419771155592e-02
-1.583341179844327540e-02
-2.052650838159195135e-02
-1.435322568573915714e-02
-4.071867447227092707e-02
-7.836816647632495469e-02
-6.076221218127322854e-02
-5.241561445266428726e-02
-5.878309743687582661e-02
-4.923410706199939785e-02
-2.989789767577242380e-02
-4.880298001930684360e-02
-4.498477713843866688e-02
-3.602226785953827753e-02
-2.487140925124348839e-02
-2.592449655883274223e-02
-1.721414594980168883e-02
9.267744660234646104e-04
-9.703602722750609769e-04
6.435403254909792189e-03
-9.749264297091303488e-03
-1.034406108418911563e-02
-1.956015520610132619e-02
-1.717058434677740109e-02
-6.904660074995433439e-03
5.415047946027110037e-03
2.153301842681286382e-02
8.922075813731174254e-03
-6.544651541018957353e-03
-1.156530651679429575e-02
3.981480474160394023e-03
1.299983293040728183e-03
5.663149238128065144e-03
-7.645346472042388597e-03
7.120283616289302397e-03
-1.082938098937553939e-02
-1.940842490410346274e-02
-3.358934883501579760e-02
-9.184381492924525991e-03
-1.971553288417159794e-02
-1.262532602667130327e-02
1.619753737929583576e-02
1.067742602551260966e-02
-6.107186203833256388e-03
-1.005232608261324989e-02
2.384864189537713730e-02
3.230108153888206629e-02
-1.203138587388676017e-02
-2.643271142713572025e-02
-3.709147094068640516e-02
-1.941515119202655293e-02
-1.380833562543652693e-02
-1.123844417091527520e-02
-6.231678889995068138e-04
1.441901411599125216e-02
1.018318846863722205e-03
-1.667011041509764216e-02
-2.837446118139728968e-02
-1.379433059731910091e-02
-6.145075988722208116e-03
-1.058228095482546122e-02
-2.892396756262515661e-02
-4.415071159004468893e-02
-5.154508930978655978e-02
-5.332147005592621780e-02
-5.563107490683620593e-02
-6.171219479411736708e-02
-7.146489901042706039e-02
-7.607605811897798220e-02
-8.072114124675056068e-02
-8.874532148363531436e-02
-8.149798349055506486e-02
-8.621569883076547758e-02
-4.774246168873255702e-02
-2.486969529554024227e-02
-4.796521905067087366e-02
-7.602842329385529896e-02
-7.119844411981314514e-02
-6.439859961341221073e-02
-6.466275999464796143e-02
-6.560728529277778942e-02
-6.436800032196926535e-02
-5.833330998201538553e-02
-6.973063733682519083e-02
-4.147264152149356120e-02
-2.600680612948652604e-02
-2.965345877670658159e-02
-5.544880804826829435e-02
-4.889111958494023191e-02
-5.692834213610417637e-02
-6.745028118146575991e-02
-7.808781906570719245e-02
-8.334274925727064298e-02
-8.102642935420040216e-02
-7.974778432232472458e-02
-9.513027310141805581e-02
-9.488104421028885349e-02
-1.034060604320935495e-01
-8.813333363827337286e-02
-8.716068405520641105e-02
-1.046930086784344238e-01
-1.060475844265563738e-01
-1.146264531392350572e-01
-1.242869216485993356e-01
-1.310174516214426543e-01
-1.288155759846636716e-01
-1.006321545972367337e-01
-8.832794275413341500e-02
-7.652589294869038827e-02
-8.699784386579287321e-02
-3.254016214203209190e-02
6.216455632744380400e-04
-2.231078404516092378e-02
-4.394414816873234986e-02
-7.952664205152273902e-02
-6.534795823876188292e-02
-4.271516904423425243e-02
-4.633753203576847224e-02
-6.122501229706363290e-02
-6.396740328155220423e-02
-6.392714745762390072e-02
-7.846923514024140012e-02
-7.761936910253938726e-02
-7.204798437575105075e-02
-7.601560971348440832e-02
-8.232596637179466492e-02
-8.714012060504358614e-02
-8.384263295892149803e-02
-9.110191793155598960e-02
-9.383334331563993047e-02
-1.214180691658122702e-01
-1.098508944549044936e-01
-1.108673770637161882e-01
-1.213424193215269231e-01
-1.130773781022474805e-01
-1.227543841233272037e-01
-1.069721890445999024e-01
-1.019932556211053110e-01
-9.383283765644620522e-02
-9.562021189732729243e-02
-1.036133878511129869e-01
-1.122990247686406762e-01
-1.075706625968973207e-01
-1.061927354491105230e-01
-1.172035562871450720e-01
-9.907865335974258558e-02
-1.000575736475357580e-01
-1.025713575513410303e-01
-8.210526725227204614e-02
-6.449903824801787866e-02
-6.003152211522178733e-02
-6.035390363953025555e-02
-7.509633473519798652e-02
-9.061997931944523743e-02
-5.252411334899938222e-02
-3.479094748369590540e-02
-2.932852304479920819e-02
-2.080877323000399071e-02
1.321977916549271076e-02
9.707362458803407354e-03
3.293522162482049459e-02
3.791662658403041619e-02
1.669264027705927300e-02
7.972747774026955891e-03
2.186108618372643864e-02
7.314172682358563438e-02
1.096170248820678983e-01
1.359656519647668982e-01
1.549956530981337621e-01
1.737499467760766081e-01
1.690562574562018694e-01
2.167886885445082790e-01
2.526463261280875172e-01
2.942768525559281700e-01
3.267268172611741961e-01
3.869618648258935090e-01
4.425506642975723381e-01
4.721237096958942336e-01
5.108353104232583597e-01
5.772050428451719339e-01
6.251884592804781704e-01
6.217087203339987100e-01
6.779313947754721514e-01
6.962808418180276293e-01
7.185190515251452803e-01
7.366514351306100439e-01
7.330495700534002124e-01
7.164738431671008323e-01
7.025019813259203438e-01
6.852904792334524320e-01
6.957531671559714637e-01
6.501323706471771047e-01
6.274928927277609869e-01
5.684340416723235867e-01
4.959435077700617978e-01
4.308727922097971286e-01
3.724326526201293119e-01
3.408485901854244604e-01
2.841702917472188061e-01
2.125732712694204107e-01
1.485686471389318086e-01
1.361621647091879883e-01
1.198148113756223043e-01
1.051277421433156195e-01
8.819295020368334015e-02
8.145211057670004307e-02
7.674849376825484959e-02
6.967722883070258388e-02
6.266061978455723935e-02
4.114985582022863408e-02
4.636016122892614583e-02
5.507165602176248426e-02
5.995247631725172249e-02
3.813467804140321937e-02
4.552814582479226824e-02
3.757904157518170141e-02
4.415996638663786944e-02
5.024285054823045271e-02
2.894927270261478044e-02
4.636275392871902143e-03
2.064905907714173483e-03
1.135586387640435263e-02
-1.369357997504927482e-03
-1.293531735900099733e-02
-2.235929899540868571e-02
-3.721570659693798633e-02
-5.329929414001939592e-02
-4.290842363176086693e-02
-5.885120626439571678e-02
-5.499280049900313189e-02
-6.433464320490595023e-02
-5.401769529302785644e-02
-6.766958416117330177e-02
-6.266742611208012126e-02
-6.472307645525639253e-02
-6.599038770240327201e-02
-7.689823827323390149e-02
-9.937477020216027579e-02
-6.156103306098696659e-02
-4.573668433716557291e-02
-2.338956567987921648e-02
-1.748800351986978807e-02
-1.590066443410814712e-02
-3.304679135479091090e-03
-1.044719930654997020e-03
-1.512840479593650922e-02
-2.258486305152823670e-02
-1.864598612694555457e-02
-2.297238351849346244e-02
-1.530294857508768432e-02
-2.634733472624239264e-02
-4.277118083842297580e-02
-3.455728441983391824e-02
-3.377741168102765118e-02
-4.224802926722749652e-02
-5.198770913922024645e-02
-4.843159318721117212e-02
-5.202235673791517218e-02
-7.169154735401016276e-02
-7.726251746266245279e-02
-9.807318304247122920e-02
-6.175912069993388237e-02
-4.970856459424294327e-02
-6.176602759400671994e-02
-7.236603650810546906e-02
-5.717983744675951552e-02
-3.168869482279285110e-02
-3.268407626443067121e-02
-5.450316756358956904e-02
-6.091902867078955591e-02
-5.349129275748829015e-02
-4.886302409582676809e-02
-4.283093832807216561e-02
-5.560497125284669107e-02
-4.503611132750794110e-02
-1.679166325690886752e-02
-6.618101016916864976e-03
1.010073143791372779e-02
-1.657746233946392686e-02
-2.551110437445761742e-02
-3.261533089220069320e-02
2.829718700631971007e-03
3.671586539137433602e-03
-5.443483634397033866e-03
-2.512887987243483945e-02
-1.454036924324657309e-02
-1.381232944455410006e-02
-1.260091591990898652e-03
-1.779535454945065445e-02
-3.748166402123125074e-02
-5.345802095687612193e-02
-6.563262358284711884e-02
-5.387796982632290371e-02
-4.154454891526978416e-02
-2.854203622436610188e-02
-3.910865955248592901e-02
-1.550469970205767267e-02
-8.249706727483437085e-03
-2.799521089265815527e-02
-4.136372466448130086e-02
-4.455081736280139953e-02
-4.217990642634977805e-02
-1.226186227662968975e-02
2.411710459891478614e-02
8.038334122095869283e-03
7.295172218572815170e-03
-3.393848837020346787e-03
5.416208267546393507e-03
4.875735490234331393e-03
-1.807473037982964409e-02
-2.533435855831895483e-03
-1.243193119772148178e-02
1.185275894434370536e-02
3.254003061651175588e-02
3.563417023877937795e-02
4.698511315536943456e-02
2.283197617197599977e-02
7.548591401074521146e-03
-1.450599241697034247e-02
2.150024838933513316e-03
4.205026241877198728e-02
3.998315669785591775e-02
2.175645290067535625e-02
1.857057692888686162e-03
1.106386803270562047e-02
2.218823941484207585e-02
2.050873258711627400e-02
-3.348695897914116815e-04
-7.556700725090376158e-03
1.542470681593227991e-02
3.656235373464267191e-02
2.808660985418623413e-02
2.792508159320065270e-02
3.023931417540093314e-02
4.738766254477214113e-02
6.965059062283174285e-02
6.807836920193618968e-02
6.029149065502438509e-02
8.470209093502086006e-02
8.599123875757144764e-02
6.310427724532011173e-02
6.471541809823048996e-02
6.051543916664647860e-02
6.754273727943789496e-02
7.928287422357292724e-02
8.675740750814736613e-02
8.828372827456937300e-02
6.332447372860991464e-02
6.783292944850725925e-02
5.636124094103313331e-02
5.691354216408184286e-02
5.607148948636756641e-02
5.629908169447629673e-02
5.402544560120817185e-02
5.203082517492252368e-02
3.798244731529577811e-02
3.430086804933588085e-02
4.541350638937231149e-02
7.353911869125355494e-02
8.752176643500807207e-02
6.015021534113151880e-02
3.814136373682845693e-02
6.153916217967388136e-02
6.226985906926746361e-02
7.515229105232547335e-02
7.489609097182862996e-02
6.499483158787944248e-02
6.174257286923803822e-02
7.344423683281187110e-02
8.206549165756645003e-02
7.045713081438254033e-02
8.753884971311294561e-02
7.643977886768296703e-02
7.255459039465429749e-02
7.113282657614009019e-02
6.349009908851470374e-02
6.694914801239737479e-02
5.675559158349520461e-02
4.340995194767855586e-02
6.265610079730596360e-02
7.107481427390974216e-02
7.055566757818584889e-02
6.843795541725236631e-02
6.349756939685161083e-02
3.327418020007864852e-02
3.075477735978915383e-02
4.116495518278556753e-03
6.048763710605219168e-03
1.179993382349643974e-02
3.149951032940279116e-02
2.007001578098327466e-02
1.814678024870883255e-02
3.481847952767665177e-02
4.523212237441827377e-02
4.474396092817420345e-02
4.806406150226062712e-02
4.745948777864999329e-02
5.252469277204957487e-02
3.717721056946125119e-02
2.315084842855800323e-02
1.255539426782089144e-02
3.996091757615669038e-02
3.453848487335402229e-02
5.237788365450933570e-02
4.226085046856668803e-02
4.759641793206607213e-02
4.490586367338648965e-02
5.587264413801554946e-02
6.550419258325937411e-02
4.154660080680974005e-02
2.017384533976449359e-02
1.397576752305018655e-02
6.655975518709042471e-03
-1.065025901249796320e-02
1.444821863007589302e-02
3.481429605594749122e-04
-1.196226413567811481e-02
-1.754778664786997219e-02
-1.982168467247650764e-02
-1.613213818014964940e-02
-9.087771127077183542e-03
-2.158857172659538887e-02
-2.417193952304352855e-02
-1.904708355474177273e-02
-3.466389255619070631e-02
-3.391465858029864278e-02
-3.033919008316714183e-02
-1.450701107375390597e-02
3.603519492397695007e-03
9.965315808004523296e-03
-9.946846824104019907e-03
-2.747904455934296192e-02
-5.048626995952022745e-03
-7.330607843631931075e-03
-3.551885836009044395e-03
-2.045400403082139884e-03
9.194450391604908068e-03
-9.816463810807040530e-03
-2.439371004301252310e-02
-1.982394432535878812e-02
-2.183718693685747156e-02
-1.740000518973444654e-02
-4.960437826129522609e-02
-5.968279431996466322e-02
-5.407996944680613927e-02
-5.708583050622001442e-02
-6.451673564767074209e-02
-8.785174335357859299e-02
-7.861243842626937373e-02
