3.871680000000002987e-11
-3.458226191675918529e-11
-3.586052090479066659e-10
-9.686815727025799789e-10
-1.950491881476706872e-09
-3.220610383410175888e-09
-4.696394068713260883e-09
-6.139165054243246375e-09
-7.328056053742725926e-09
-8.021230426847334760e-09
-7.951931579006510453e-09
-6.938973125624452127e-09
-4.936356631605427063e-09
-2.081009884182978238e-09
1.384414487009534384e-09
5.218687984398867497e-09
9.013418302387476884e-09
1.233492193043500638e-08
1.478057884148779936e-08
1.598898931620231091e-08
1.574363409316817244e-08
1.400296760230975229e-08
1.085512690508448998e-08
6.455626972251151269e-09
1.126285202577556378e-09
-4.647020874768835088e-09
-1.033268233637465227e-08
-1.531696776829443556e-08
-1.894323531625804653e-08
-2.077057199177776885e-08
-2.042488806873004662e-08
-1.778139521867829322e-08
-1.318737314888951323e-08
-6.967901792719128180e-09
3.966350334672129181e-10
8.234339519337398399e-09
1.569933498884325068e-08
2.194910189598077367e-08
2.625356790320635151e-08
2.814984247677822948e-08
2.740239650378317187e-08
2.397810265261137131e-08
1.808018501147454012e-08
1.005919199820547726e-08
6.267268570512645235e-10
-9.318642314343281112e-09
-1.879351936813176020e-08
-2.680670776797005386e-08
-3.255481121925088379e-08
-3.535891046124053212e-08
-3.474072301088531395e-08
-3.064265688907726859e-08
-2.332869647675817778e-08
-1.325442373830083488e-08
-1.262468628258200389e-09
1.148144757546590818e-08
2.370921486780066597e-08
3.405524145678981735e-08
4.132553181327090383e-08
4.466141191862656815e-08
4.368538055821379608e-08
3.838591823204786294e-08
2.914037172274070968e-08
1.661339684571653077e-08
1.934945169349831503e-09
-1.348179459531112199e-08
-2.813842375673264021e-08
-4.060023112114857847e-08
-4.953471476347149398e-08
-5.403608028334226897e-08
-5.350355839858675072e-08
-4.780905242646649568e-08
-3.737079137889295864e-08
-2.310884266368966275e-08
-6.338474266543592442e-09
1.134552874259691449e-08
2.815959257134947902e-08
4.241700900762650745e-08
5.264344245624567342e-08
5.770256177207025974e-08
5.701752105198806089e-08
5.056183649044678743e-08
3.880968734461077954e-08
2.274611373007675907e-08
3.830668743922976163e-09
-1.613006084789291609e-08
-3.515788526754609912e-08
-5.130853499269106559e-08
-6.291293917324472670e-08
-6.879169551158971894e-08
-6.830644563260158289e-08
-6.134043187245601294e-08
-4.847155712963180816e-08
-3.088742031225461183e-08
-1.025020393993252254e-08
1.144976852195446264e-08
3.211322568209678596e-08
4.959798098910583518e-08
6.207153100881497355e-08
6.824363508692655599e-08
6.736268328932986546e-08
5.938799048732761362e-08
4.485665369465535417e-08
2.490278206587654624e-08
1.408832999870461974e-09
-2.338785530343008234e-08
-4.702166822120079054e-08
-6.716500410153137193e-08
-8.168298657789674469e-08
-8.903414752481603454e-08
-8.838331411505315248e-08
-7.972195940214885086e-08
-6.376194774501131461e-08
-4.195016796581248207e-08
-1.639648199898878973e-08
1.041319520083322369e-08
3.587818829554398221e-08
5.745465517198418997e-08
7.292257060537854938e-08
8.069420366438208745e-08
7.994281924504003581e-08
7.059110040642435995e-08
5.340726797160326258e-08
2.994709142294182395e-08
2.478206043399496016e-09
-2.636094782711603944e-08
-5.382886374430864720e-08
-7.717262713440788535e-08
-9.404083332832622729e-08
-1.027478037833460501e-07
-1.024049685160964063e-07
-9.284330693737391250e-08
-7.501868307973915869e-08
-5.062181561390088505e-08
-2.195408714429003484e-08
8.208410319799262670e-09
3.684847332861340208e-08
6.110771168000041002e-08
7.859672951088205438e-08
8.754846402556663058e-08
8.697622083098184635e-08
7.682069945784054174e-08
5.798460061973577617e-08
3.220694409608058882e-08
1.957384648848072364e-09
-2.983201884796104837e-08
-5.996190828069920293e-08
-8.534099796893839096e-08
-1.033750404897465592e-07
-1.122793354469408720e-07
-1.111906454346834538e-07
-1.000884790902716428e-07
-7.995971096214938631e-08
-5.272354258492707445e-08
-2.097754523061613650e-08
1.215975963427305457e-08
4.348630774112661627e-08
6.987395631915733607e-08
8.864654670129302132e-08
9.784785779335032956e-08
9.649648469383913890e-08
8.468331997206375566e-08
6.347409187051403962e-08
3.485524096653092658e-08
1.561517750795337785e-09
-3.312179263956122350e-08
-6.579953989006064821e-08
-9.321444721816128673e-08
-1.127242729484245296e-07
-1.223522173839622873e-07
-1.210711674756114976e-07
-1.089730039526772689e-07
-8.717545561138223458e-08
-5.776225196000585603e-08
-2.350190845927204190e-08
1.233902758866723290e-08
4.622744532981457932e-08
7.484189069750648653e-08
9.544236655696907488e-08
1.059914742949992465e-07
1.053500828451927484e-07
9.352989311508472546e-08
7.174845531766313457e-08
4.210393634849660230e-08
7.426648610746392781e-09
-2.892677265545602976e-08
-6.339560238736032258e-08
-9.253574157558264667e-08
-1.133885425298674589e-07
-1.239293623467931694e-07
-1.231719157945613957e-07
-1.111017358975663268e-07
-8.889613704012266501e-08
-5.874227296201117634e-08
-2.360813407870345437e-08
1.301593920087859091e-08
4.759393293088414078e-08
7.670700614450793206e-08
9.752968997583629500e-08
1.079166234165919876e-07
1.068331030543305238e-07
9.449611921928768090e-08
7.217382519211257361e-08
4.197217958073743638e-08
6.868337696257726522e-09
-2.969675502768783530e-08
-6.408870788505601299e-08
-9.288166579470622954e-08
-1.132440324528199904e-07
-1.232040854340153543e-07
-1.217681742293141111e-07
-1.090679876305292879e-07
-8.638854243241701620e-08
-5.597264170662023178e-08
-2.080791270714074954e-08
1.569018616541776235e-08
4.998650691446377531e-08
7.872133580478456333e-08
9.922774849625392510e-08
1.095789846380740613e-07
1.086939632707780287e-07
9.660632521194754801e-08
7.451909726643433425e-08
4.468569980155270487e-08
1.003000765215932962e-08
-2.603287012767314759e-08
-6.001897325049348789e-08
-8.865141029740422216e-08
-1.091140700322810305e-07
-1.194633003405447182e-07
-1.187979890877567584e-07
-1.072147089291316922e-07
-8.588733340288579208e-08
-5.701063380520058956e-08
-2.345065526267701220e-08
1.147231320949007674e-08
4.436486782413467662e-08
7.207325602160605202e-08
9.192594820171506844e-08
1.020390049923710353e-07
1.015323369711286607e-07
9.063277134465808158e-08
7.059039596185604767e-08
4.348466910861124864e-08
1.203190760659288935e-08
-2.069297717070340485e-08
-5.147603018385427175e-08
-7.727696450090418251e-08
-9.559409987848467424e-08
-1.048279534710434979e-07
-1.042351598540750611e-07
-9.411791517511665575e-08
-7.565408117490936516e-08
-5.071632424166735369e-08
-2.176703160577876559e-08
8.213675624557320609e-09
3.623390226437345578e-08
5.958053825898502954e-08
7.608627732079528873e-08
8.431401490896568783e-08
8.370450134320897271e-08
7.445656263690056599e-08
5.768163689888638826e-08
3.518460592371985952e-08
9.362609020673081799e-09
-1.716308231485980769e-08
-4.189664482292192965e-08
-6.249614438487595437e-08
-7.703628503222038284e-08
-8.424315454997078811e-08
-8.362857175811830350e-08
-7.546835142869196463e-08
-6.079769536182496461e-08
-4.124502649944531245e-08
-1.881414728262210784e-08
4.269826546499264595e-09
2.577372111672845583e-08
4.367815244435591727e-08
5.637146479779791775e-08
6.287212404074012277e-08
6.287001957663703744e-08
5.661797963869133140e-08
4.499812913444777460e-08
2.938656848634237802e-08
1.149684392796803218e-08
-6.846480886970327915e-09
-2.381554495213861196e-08
-3.784523051281131519e-08
-4.786877810965100119e-08
-5.315858658162111583e-08
-5.347283247817348924e-08
-4.909298059092256500e-08
-4.080511278619646985e-08
-2.973034425534766997e-08
-1.716577702061295180e-08
-4.420139568793098350e-09
7.341612546782643195e-09
1.706278031010450726e-08
2.398694269239291779e-08
2.777618861651509166e-08
2.847093941068814083e-08
2.639809068551840674e-08
2.215698228962737395e-08
1.648465426461982657e-08
1.014784340532456060e-08
3.921272393322053439e-09
-1.527947646758949565e-09
-5.782663214057657975e-09
-8.749856512527699529e-09
-1.047646034368402701e-08
-1.120018534215328999e-08
-1.121819639324741993e-08
-1.096770968631764299e-08
-1.087353927539199784e-08
-1.121504755142762368e-08
-1.200059881721864512e-08
-1.310192409455046737e-08
-1.441321783088277464e-08
-1.550941887023183734e-08
-1.577600103554657683e-08
-1.470284895104955326e-08
-1.184582139350635258e-08
-6.959243243423621569e-09
-1.473794507954083904e-10
8.134575787797848659e-09
1.717773074836652945e-08
2.609271630967160882e-08
3.383935444299231854e-08
3.944671548616414968e-08
4.189015642496959504e-08
4.036394239979698820e-08
3.445207799520357149e-08
2.423849232179965499e-08
1.037688462574690033e-08
-6.063076568809094359e-09
-2.358126636897924149e-08
-4.037564117739098513e-08
-5.459576921092834682e-08
-6.447650193106919559e-08
-6.853100531295150109e-08
-6.575974108702653542e-08
-5.585520644997047628e-08
-3.919310545018080215e-08
-1.681985715528306132e-08
9.383175515237735672e-09
3.699470271007980218e-08
6.333493457298560470e-08
8.568061443192003385e-08
1.014032067129550211e-07
1.084285060264082166e-07
1.054805243636003380e-07
9.215857239168643871e-08
6.917507837852991927e-08
3.833526057978074702e-08
2.267312006320667300e-09
-3.569828564060152988e-08
-7.174340534072881935e-08
-1.021743134225041727e-07
-1.235823544245922466e-07
-1.333109080668474751e-07
-1.296398720214361808e-07
-1.122199589082182017e-07
-8.212228505191994391e-08
-4.166363548634428338e-08
5.565112650717072165e-09
5.514121306341330255e-08
1.022656161318767109e-07
1.421288452663624625e-07
1.704074778779047125e-07
1.837081947797987098e-07
1.800722391157396071e-07
1.591151861547418473e-07
1.222063135343482464e-07
7.238962465232852864e-08
1.415748466806022354e-08
-4.695648224764085717e-08
-1.048955421088222747e-07
-1.537741915036841608e-07
-1.883730983824228821e-07
-2.046111970841455548e-07
-2.000975754738254559e-07
-1.745161310337640811e-07
-1.296269776616171928e-07
-6.909715861267934292e-08
1.634434838688693490e-09
7.576420824816723615e-08
1.459276829220204492e-07
2.049383033560520918e-07
2.465424137118669245e-07
2.660424868412826891e-07
2.606992121443732706e-07
2.302404560245721500e-07
1.769322468453673411e-07
1.053230200696022351e-07
2.193420357949921041e-08
-6.529683895886097686e-08
-1.477200550121420217e-07
-2.169400789000608104e-07
-2.656012416211323286e-07
-2.882071066305154393e-07
-2.816903163040812394e-07
-2.458197830843270207e-07
-1.832195776227930675e-07
-9.920495606421643289e-08
-1.443509486007211296e-09
1.007603253401896452e-07
1.973592982558370468e-07
2.786835730289111358e-07
3.362112436078357930e-07
3.635700689993187254e-07
3.571521450553220419e-07
3.166767505304278245e-07
2.452853385662337672e-07
1.491291698296986454e-07
3.717411630839049817e-08
-7.990303518043743876e-08
-1.906214655273322357e-07
-2.838351165392427181e-07
-3.498335822125691387e-07
-3.813127307055259501e-07
-3.741999371236807190e-07
-3.282071553600908601e-07
-2.469019422192073334e-07
-1.375056867922955736e-07
-1.021616565948750287e-08
1.227643729172825771e-07
2.484587837568458241e-07
3.542314583781456942e-07
4.292069924435025442e-07
4.652108136426788959e-07
4.577753701556888380e-07
4.066729159668602241e-07
3.160240481121819040e-07
1.939707765554202476e-07
5.194403464682314048e-08
-9.637211693395681320e-08
-2.363366212394353648e-07
-3.538974885385093547e-07
-4.369306359908382929e-07
-4.764092031468812138e-07
-4.673829124918483375e-07
-4.096057048219047687e-07
-3.077038798156922764e-07
-1.708954418402352507e-07
-1.202121770407352089e-08
1.536881519584785657e-07
3.099607510481188585e-07
4.412075153988362134e-07
5.339482572776245945e-07
5.782582996124634398e-07
5.688730645253652853e-07
5.057432333338517918e-07
3.941680141400361297e-07
2.441895992726526458e-07
6.983296861116122141e-08
-1.120733081698221445e-07
-2.836624086406876085e-07
-4.276724888999166980e-07
-5.292295350728385226e-07
-5.774252475495314379e-07
-5.667283268655470317e-07
-4.971043075041000425e-07
-3.743978860897708003e-07
-2.097612028739420057e-07
-1.859649316291128757e-08
1.806956496007732481e-07
3.685786645696477689e-07
5.263824081752434728e-07
6.380732874781880640e-07
6.918766048410970875e-07
6.815882077258529842e-07
6.071675752458247319e-07
4.750569734195351522e-07
2.974747765545511371e-07
9.130947020972588533e-08
-1.235283398106013504e-07
-3.258931591331310135e-07
-4.955798357378781192e-07
-6.153522146551438258e-07
-6.725873793771357927e-07
-6.606430539383070757e-07
-5.796685763557867377e-07
-4.366205464976116039e-07
-2.446179137581563502e-07
-2.176696109637956757e-08
2.103163608624568591e-07
4.288813288964429858e-07
6.121926236670537623e-07
7.416951153943225224e-07
8.038826805395435793e-07
7.917543923030132549e-07
7.055612186030112229e-07
5.528559950434884376e-07
3.477846037651634306e-07
1.099091632601140812e-07
-1.376633429326978657e-07
-3.705963057734784457e-07
-5.657214470980472606e-07
-7.031915370818422316e-07
-7.687239214251760228e-07
-7.548872297410743256e-07
-6.620250873007810010e-07
-4.982579180410434919e-07
-2.788237563296347009e-07
-2.459079823487547334e-08
2.398344713647794140e-07
4.885185493077445534e-07
6.968376298864202574e-07
8.439218963127299619e-07
9.146814960039689937e-07
9.013478843134426445e-07
8.042805130762933238e-07
6.321295323925056771e-07
4.010402029634227797e-07
1.332199579757621830e-07
-1.453578038633692453e-07
-4.073484460913096015e-07
-6.267688858485011453e-07
-7.815739001298859800e-07
-8.557891054035625989e-07
-8.412153309622811086e-07
-7.384551414975014260e-07
-5.567559131002748984e-07
-3.131050832933479776e-07
-3.081841916891173987e-08
2.627508969471349450e-07
5.389326938192072240e-07
7.704664940210831568e-07
9.342265684390871755e-07
1.013370351855202398e-06
9.994612385626930082e-07
8.930306286206124627e-07
7.036878041321713898e-07
4.494856581683428840e-07
1.548282382017332362e-07
-1.516581984575846127e-07
-4.399461161648256879e-07
-6.815599529177178014e-07
-8.523046692193323771e-07
-9.349359923768308224e-07
-9.206297223724611953e-07
-8.100089709231577117e-07
-6.131452355025018536e-07
-3.488040675674935286e-07
-4.256803267297803755e-08
2.756614978719747312e-07
5.746088221691389237e-07
8.247403930492782675e-07
1.001032511451831634e-06
1.085525909040177198e-06
1.069218010429328995e-06
9.529176760527027864e-07
7.472428623367056207e-07
4.716908405198581469e-07
1.527196814696122858e-07
-1.787235274077037293e-07
-4.902834400523740108e-07
-7.513926594768937016e-07
-9.363407357309572444e-07
-1.026750845777843644e-06
-1.013360297221543778e-06
-8.971105791212847421e-07
-6.891023872835330291e-07
-4.094357225717421953e-07
-8.531174773305733071e-08
2.516643167207940198e-07
5.684469982279051736e-07
8.338543916102339936e-07
1.021573332469499482e-06
1.112880257830601596e-06
1.098402185193222324e-06
9.790941760024349241e-07
7.662673613330998898e-07
4.806305203454179879e-07
1.500552150867544264e-07
-1.930395412440890503e-07
-5.148912020287804784e-07
-7.837156581976614429e-07
-9.728564437305041947e-07
-1.063355718242717654e-06
-1.045917311107499093e-06
-9.218317782959027885e-07
-7.029814447716337894e-07
-4.105600110295433762e-07
-7.300143663036256756e-08
2.767375615128061029e-07
6.044547350016205991e-07
8.780057096517130364e-07
1.070461598552959616e-06
1.162898182116086593e-06
1.146193376499679174e-06
1.021854944566324054e-06
8.019128510222367632e-07
5.078091847063906407e-07
1.683877214147927548e-07
-1.831051796186925433e-07
-5.122482644691720791e-07
-7.867754754243805582e-07
-9.796646229607012846e-07
-1.071958328053761705e-06
-1.054522720739249344e-06
-9.289449427061479547e-07
-7.074638950194495747e-07
-4.117853092189252344e-07
-7.101158514776656948e-08
2.814787832842186058e-07
6.112851104538516478e-07
8.862321223916052851e-07
1.079476750706719549e-06
1.172249572664058386e-06
1.155602547329149829e-06
1.031393934542246991e-06
8.120206648149817644e-07
5.191397315971557451e-07
1.815876550272292939e-07
-1.675597975006578331e-07
-4.941312107688687338e-07
-7.661788196533029595e-07
-9.571313321033300351e-07
-1.048506434251898326e-06
-1.031693401636944528e-06
-9.087684235067810839e-07
-6.920977291647951609e-07
-4.030961726841586101e-07
-7.031032958512003800e-08
2.735257965993532457e-07
5.948870020811076191e-07
8.625130971383904366e-07
1.050513320478316515e-06
1.140944885728624342e-06
1.125480111312191803e-06
1.006217087103246581e-06
7.954120364097133048e-07
5.142375542139420454e-07
1.905818330661269972e-07
-1.436430290711995883e-07
-4.557181910008054319e-07
-7.153236030775510769e-07
-8.974633157749369954e-07
-9.848501902339755227e-07
-9.696772060556694547e-07
-8.541144728336880350e-07
-6.501747688214096604e-07
-3.785105273945366957e-07
-6.615843087489293355e-08
2.560728655510993880e-07
5.567220556588763983e-07
8.067313602471113621e-07
9.821697344371534931e-07
1.066638986642810606e-06
1.052829170202868036e-06
9.430028007344885326e-07
7.489281188335896600e-07
4.904627322296830652e-07
1.935413270331929654e-07
-1.125382102694685427e-07
-3.978234161186647119e-07
-6.348569935895408666e-07
-8.011080501113294829e-07
-8.812064653476527905e-07
-8.683919764042137876e-07
-7.651384970976130116e-07
-5.826720374117497498e-07
-3.397750047835291118e-07
-6.091630796990509796e-08
2.262186763558916510e-07
4.935464343062580008e-07
7.154349286243510862e-07
8.710795819237391434e-07
9.463481023842058310e-07
9.352760848625717968e-07
8.403991563159050044e-07
6.723902234347755690e-07
4.489438106634627481e-07
1.928339392847689119e-07
-7.053820719897526808e-08
-3.155085224092671390e-07
-5.186322468663299201e-07
-6.610109861232741487e-07
-7.300805644170753352e-07
-7.207480199956420778e-07
-6.356413271159785989e-07
-4.846882720481685530e-07
-2.840531164086287378e-07
-5.439828121338139881e-08
1.812381183813831780e-07
3.998601746883141445e-07
5.807392082314065787e-07
7.073834485310899616e-07
7.690176631007573016e-07
7.614765994068618582e-07
6.875096661248718200e-07
5.562856334584957063e-07
3.822271174848642903e-07
1.835076947829557315e-07
-1.991036139026279743e-08
-2.081543412681756258e-07
-3.634531776873387277e-07
-4.719144848813873944e-07
-5.248239627452055409e-07
-5.191688060813415990e-07
-4.577522391996717137e-07
-3.487526157703829300e-07
-2.046982551814498590e-07
-4.098484671904848240e-08
1.257128101100370521e-07
2.791653225020808992e-07
4.051725833303825745e-07
4.929397886657660874e-07
5.358931462225229072e-07
5.322539586142378292e-07
4.848511915383422548e-07
4.006335009295880064e-07
2.898676395260845396e-07
1.648579666141117928e-07
3.869060123435067747e-08
-7.642230061483455871e-08
-1.702582761711406349e-07
-2.354052614546524549e-07
-2.678199326174847853e-07
-2.670730842580953188e-07
-2.360670782356707815e-07
-1.805067174326991797e-07
-1.081238664908548646e-07
-2.764399333748616315e-08
5.231511189332288878e-08
1.241060812779742325e-07
1.816677412951670760e-07
2.212007951297365367e-07
2.414423785719968167e-07
2.434297642045931264e-07
2.300500276169559990e-07
2.055265129176491721e-07
1.747127611577806825e-07
1.424120050274314101e-07
1.126468389673645231e-07
8.817011727968504045e-08
7.019178554297056400e-08
5.834130264907358166e-08
5.091671933502375700e-08
4.534990440821441475e-08
3.876864360213464891e-08
2.854733670895831699e-08
1.290364421246810662e-08
-8.583050439323795096e-09
-3.482563462829666055e-08
-6.312379231834780726e-08
-8.945365662716266039e-08
-1.090467632159788010e-07
-1.169502994583704875e-07
-1.088168271353192527e-07
-8.169973049194130089e-08
-3.473429345093292104e-08
3.040823942401096564e-08
1.094452687932227352e-07
1.956307000988529903e-07
2.803995075183910537e-07
3.541197492305655843e-07
4.071158491900974195e-07
4.308949082460418741e-07
4.192256344455507855e-07
3.691135319796141954e-07
2.815739003216635793e-07
1.619495772984181166e-07
1.970495932674375375e-08
-1.324034969552761582e-07
-2.793274699103275151e-07
-4.052154123164050859e-07
-4.951065669338170065e-07
-5.366303485632676456e-07
-5.215872821144049693e-07
-4.471791546294587305e-07
-3.165971749295102743e-07
-1.391989147406646742e-07
7.006040941029908832e-08
2.919156054381206729e-07
5.044683652021881560e-07
6.853057533471979974e-07
8.137866654438312442e-07
8.733703182697091409e-07
8.537373193469757535e-07
7.521038720140038186e-07
5.740333346497381518e-07
3.333126890850559500e-07
5.085738005838611216e-08
-2.468844159522697225e-07
-5.305926109115373980e-07
-7.708024331436560779e-07
-9.409772549353746099e-07
-1.020359528778861348e-06
-9.963616785023720730e-07
-8.663971648490072339e-07
-6.385157297010460722e-07
-3.311346600825419224e-07
2.840273122039931943e-08
4.062200401377699420e-07
7.651027960434866384e-07
1.068082278316403940e-06
1.282220808637746851e-06
1.382157264286947722e-06
1.353025270890546493e-06
1.192350679552131579e-06
9.108801787547433326e-07
5.319789686819956631e-07
8.966786039600547978e-08
-3.742231259924285668e-07
-8.140511790447778696e-07
-1.184861034252962342e-06
-1.446958982905052951e-06
-1.570065711051774289e-06
-1.536833302524552832e-06
-1.344897536744075657e-06
-1.007811986916453624e-06
-5.541873662392108283e-07
-2.532395107824423497e-08
5.285200992080654501e-07
1.052840725257697207e-06
1.494261113511808331e-06
1.805911797532554452e-06
1.952367400173012459e-06
1.913609722781432461e-06
1.687530761147688273e-06
1.290693819762011918e-06
7.572988125945904112e-07
1.363249557853019739e-07
-5.130261613456740722e-07
-1.126938030766187311e-06
-1.643203519470026580e-06
-2.007515387221743764e-06
-2.179179349759463905e-06
-2.135508634076777512e-06
-1.874607654380948240e-06
-1.416195781112999209e-06
-8.003214379523532693e-07
-8.389868349465676306e-08
6.645407853757679383e-07
1.371379453901668283e-06
1.965140671260633181e-06
2.383707463245540674e-06
2.580704737618150509e-06
2.530552185315634172e-06
2.231747440089962827e-06
1.707407665918374417e-06
1.003631966205580540e-06
1.857006071963439645e-07
-6.680029448197918232e-07
-1.473622389709562855e-06
-2.149996032980718213e-06
-2.626727872519614558e-06
-2.851593821447641954e-06
-2.796148636975686700e-06
-2.459127119794314149e-06
-1.867227879740781671e-06
-1.073112883330726960e-06
-1.507775648404106669e-07
8.112461779698351129e-07
1.718419303315934148e-06
2.479506425491412995e-06
3.015592737063150325e-06
3.268341339053847409e-06
3.206251090193705785e-06
2.828357941239168751e-06
2.165037636654556321e-06
1.275660875785758346e-06
2.433329337874769434e-07
-8.328316809843670906e-07
-1.847223597262821001e-06
-2.698040759789936559e-06
-3.297503115292877051e-06
-3.580969971711110541e-06
-3.513742853288414126e-06
-3.095170433638408127e-06
-2.359462094378804098e-06
-1.372994061465337219e-06
-2.283730515505266579e-07
9.643024007142203481e-07
2.087929155915143649e-06
3.029789018485195678e-06
3.692999313337166961e-06
4.006319928053847950e-06
3.931812435125268225e-06
3.469296800589732511e-06
2.657002562174963031e-06
1.568464095687847275e-06
3.060601220530741264e-07
-1.008663230075716697e-06
-2.246680870367196701e-06
-3.284136767369096827e-06
-4.014649964831399308e-06
-4.360321366029120354e-06
-4.279919830636605853e-06
-3.773683759085170040e-06
-2.883999528431189135e-06
-1.691969534561529143e-06
-3.099907522820173036e-07
1.128670619143483705e-06
2.482774788825809896e-06
3.616884996293196051e-06
4.415007262004996178e-06
4.792354717744213325e-06
4.704242430463374208e-06
4.151283247028718089e-06
3.180094525521614952e-06
1.879484179445832256e-06
3.723601038199124712e-07
-1.195873261693539723e-06
-2.671344248727402402e-06
-3.906759552570326170e-06
-4.776196662303261586e-06
-5.187914092434642039e-06
-5.093731693771588271e-06
-4.494756869601439840e-06
-3.442080228353850451e-06
-2.032392291211497670e-06
-3.991915204490038782e-07
1.299752595045170909e-06
2.897638658314558656e-06
4.235189587610270449e-06
5.176195911142146295e-06
5.621439034805218332e-06
5.519386496901255101e-06
4.871710374948192424e-06
3.733949978831659909e-06
2.210934581458115076e-06
4.471507502576356568e-07
-1.387040688895342855e-06
-3.111761696547146832e-06
-4.555228243572882356e-06
-5.570900556637450104e-06
-6.052364735670824198e-06
-5.944483923930603573e-06
-5.249408439934140858e-06
-4.027240873534878111e-06
-2.391044062190617584e-06
-4.963274053576588230e-07
1.473579727579889350e-06
3.325412683326586167e-06
4.874796408228559131e-06
5.964667355260377181e-06
6.481133545389874558e-06
6.365316137044309406e-06
5.619940288969071551e-06
4.309926811202999043e-06
2.556728272785745538e-06
5.270838032159420602e-07
-1.582661236445352026e-06
-3.565537293157972986e-06
-5.224349481561982990e-06
-6.391326015969432743e-06
-6.944967632043852487e-06
-6.822786090042369722e-06
-6.028055994760059784e-06
-4.630421786116499007e-06
-2.759970457799561119e-06
-5.950447987341354205e-07
1.654682051240932824e-06
3.768545612128533303e-06
5.536483903880430615e-06
6.779870544881113281e-06
7.369590039674607214e-06
7.239369002097243286e-06
6.392985174501088847e-06
4.904934199589167643e-06
2.913928919684043205e-06
6.099705765462833911e-07
-1.783791537471533372e-06
-4.032677034234402674e-06
-5.913425795858404867e-06
-7.236437986183529400e-06
-7.864791255986831292e-06
-7.728427345658383434e-06
-6.831836803741292907e-06
-5.254470402422325799e-06
-3.143763590019403547e-06
-7.014789053614461148e-07
1.835631241109282902e-06
4.218753843564497185e-06
6.211425002968067394e-06
7.612966424045361117e-06
8.278677018229193876e-06
8.134716854922258535e-06
7.186163949128172496e-06
5.517406675953044699e-06
3.284748152996388833e-06
7.017520785940455020e-07
-1.981182674648634771e-06
-4.501073046518965058e-06
-6.608155458262685771e-06
-8.090584568612378579e-06
-8.795786982967125411e-06
-8.646096948306140203e-06
-7.647177907932045231e-06
-5.888425693035182520e-06
-3.535028228171868433e-06
-8.123767379651432691e-07
2.015361892588298736e-06
4.670848728244762000e-06
6.890922514434125237e-06
8.452610545615832553e-06
9.195428884770423305e-06
9.521919578388927802e-06
7.046685205561547508e-06
2.060417296955178575e-06
-3.749584824532057888e-06
-1.045855803889238028e-05
-1.529937346050181226e-05
-1.763195124177825257e-05
-1.499014308137335238e-05
-7.331671754778078816e-06
5.521704749431957342e-06
2.344358269283106108e-05
4.454832872743885936e-05
6.600293951499310247e-05
8.420630832311817577e-05
9.656713298240943914e-05
1.020732870002364798e-04
9.792363634152624293e-05
8.352395135620379653e-05
5.954393878145151095e-05
2.733584995331541338e-05
-9.947196084700459835e-06
-4.839540513444014902e-05
-8.449416737502279853e-05
-1.155364143668833888e-04
-1.377403036373124699e-04
-1.476707301258872946e-04
-1.439044587457732850e-04
-1.252292048436006084e-04
-9.166528774665465306e-05
-4.727626447882008978e-05
5.048394915478700775e-06
5.964327137533502986e-05
1.077762948375640510e-04
1.470720735653682787e-04
1.733960544481691498e-04
1.827023306296217441e-04
1.719200698852429857e-04
1.411697338492870187e-04
9.299899530804340078e-05
3.285919869941574499e-05
-3.358351472541595622e-05
-1.005851377150686240e-04
-1.618646057521666690e-04
-2.124206070247450879e-04
-2.449890429190936620e-04
-2.552056322944028645e-04
-2.410364564077952930e-04
-2.026121830013377883e-04
-1.437414743148481314e-04
-6.853374764723504540e-05
1.707807098482077895e-05
1.037655220094488030e-04
1.832010109184046046e-04
2.489152779163738855e-04
2.925483933543852021e-04
3.074440670416944406e-04
2.910304256816210935e-04
2.423525675584169712e-04
1.654552273562461418e-04
6.797135737773293352e-05
-3.946278438466362858e-05
-1.470127807977287128e-04
-2.444649978655263835e-04
-3.232548487119342603e-04
-3.733843523929771999e-04
-3.883702300262623845e-04
-3.658731135130819214e-04
-3.072626153798010853e-04
-2.161955733992891495e-04
-1.020323841431281024e-04
2.611991613191626493e-05
1.562852165608314271e-04
2.753024183457551742e-04
3.709453467579093533e-04
4.333399914989345290e-04
4.556030917787778911e-04
4.339003475226200319e-04
3.701119868262210612e-04
2.696930747817235597e-04
1.415385323757478687e-04
-1.221763675412432564e-06
-1.447112562012589968e-04
-2.755309313331582308e-04
-3.806677403140390817e-04
-4.486881237908176955e-04
-4.714521701386029931e-04
-4.451661163748250731e-04
-3.710071973335376605e-04
-2.555734638003823644e-04
-1.102740054878953435e-04
5.125714854947240626e-05
2.147391662348711698e-04
3.635278137429215069e-04
4.826022193290685773e-04
5.599808971229400245e-04
5.874882378821548890e-04
5.620922569832923236e-04
4.841767003426432066e-04
3.611254937221530683e-04
2.055644654744949798e-04
3.179759213148491092e-05
-1.427246687736385706e-04
-3.020328720901863996e-04
-4.305396514354974157e-04
-5.120951340160025686e-04
-5.375829386771814383e-04
-5.021896486192933655e-04
-4.086613557558780945e-04
-2.633540340445869057e-04
-8.024414483071779848e-05
1.232538145832969001e-04
3.270743063302925186e-04
5.123244544665245086e-04
6.607355476401826277e-04
7.566164120699182209e-04
7.903400878306691144e-04
7.585715377856647266e-04
6.633344467229362190e-04
5.131164575403548717e-04
3.230322665555152972e-04
1.118787631967890799e-04
-1.005592468220021786e-04
-2.931401517536054522e-04
-4.462841007240822577e-04
-5.431713183184767825e-04
-5.739149581485190974e-04
-5.352087607894579239e-04
-4.282922921921725689e-04
-2.629036803353756958e-04
-5.504752460656630751e-05
1.754422435795635745e-04
4.085042771631456964e-04
6.187987412665653213e-04
7.867973219335842785e-04
8.965709497329634597e-04
9.366857879681883461e-04
9.019819902138117131e-04
7.959592353960242336e-04
6.295573138578496389e-04
4.186635444618822086e-04
1.833745516854410739e-04
-5.309857279741496698e-05
-2.669424081541478967e-04
-4.369182173194189776e-04
-5.451812268396985517e-04
-5.801945302044879751e-04
-5.364288252330455618e-04
-4.169176652775244147e-04
-2.333636306578082517e-04
-4.649504264914859454e-06
2.466122772232413819e-04
4.976274926860009898e-04
7.235154904572740648e-04
9.014476472804453791e-04
1.014033233832419261e-03
1.049009996994903354e-03
1.003349116398949675e-03
8.799678518234752000e-04
6.903226067718944972e-04
4.525439817048491605e-04
1.904069100969948969e-04
-6.978816671717441155e-05
-3.029704460464575900e-04
-4.860186509069813168e-04
-6.003526951977550090e-04
-6.331752135557976472e-04
-5.811627551975894444e-04
-4.482863714475661702e-04
-2.484763471366224232e-04
3.531940307064907085e-07
2.743193245752099984e-04
5.461104458875508817e-04
7.896003063571839812e-04
9.807527036164638036e-04
1.101555526684328034e-03
1.139744006066092984e-03
1.089934198359531793e-03
9.569967281165341847e-04
7.545398841721177169e-04
5.011247508226267635e-04
2.202477272300413440e-04
-6.004981736934074990e-05
-3.109777848312988415e-04
-5.092047148425335543e-04
-6.358684577722993874e-04
-6.781648521826362866e-04
-6.314147156205095288e-04
-4.993017462990283900e-04
-2.943218935649832401e-04
-3.820944183041658599e-05
2.434121089447964146e-04
5.245037591669538587e-04
7.763276874858105175e-04
9.738009803294489465e-04
1.097372814852899236e-03
1.134366376928160058e-03
1.082331334685515591e-03
9.452627738430448637e-04
7.372582592870758266e-04
4.770078596471953288e-04
1.911344247450674359e-04
-9.065415576463704524e-05
-3.413537523857570729e-04
-5.382322476501807777e-04
-6.608280451450925484e-04
-6.973769184109682466e-04
-6.437380967768389656e-04
-5.052288234132073369e-04
-2.961861735160499845e-04
-3.775663166698328899e-05
2.450203540183293360e-04
5.241050441722051433e-04
7.713031090101824840e-04
9.624520684088421017e-04
1.078855551138410609e-03
1.109484634300885461e-03
1.051393833742421315e-03
9.096712928100614878e-04
6.999509482363813068e-04
4.417856906991857115e-04
1.583135783372054237e-04
-1.227977984009882091e-04
-3.733010083703978358e-04
-5.679385656816361184e-04
-6.889875787512944562e-04
-7.246567978620118734e-04
-6.726374507307741196e-04
-5.383836572380557798e-04
-3.345090834768192937e-04
-8.212643295797736451e-05
1.931820063900665304e-04
4.653618332348203527e-04
7.076452627396259730e-04
8.955124197259119049e-04
1.011558180236085246e-03
1.044717491512231434e-03
9.927984190341047552e-04
8.617115974051026313e-04
6.642434055486629192e-04
4.201684894004866140e-04
1.541649737582488492e-04
-1.068347941898213838e-04
-3.373354612090853763e-04
-5.159444990567600611e-04
-6.263945725759091643e-04
-6.593519519721935352e-04
-6.120818046982765426e-04
-4.896780785366998314e-04
-3.054478204262995743e-04
-8.022471499730488909e-05
1.638279397756249838e-04
4.014795949518654931e-04
6.101432579500452782e-04
7.711646185751123202e-04
8.697358344969098945e-04
8.951065605114284004e-04
8.464785082818984587e-04
7.303948821748679730e-04
5.600311501791541656e-04
3.534282352293763199e-04
1.320675958277622451e-04
-8.357779169840953769e-05
-2.716631583697256495e-04
-4.146382774422360654e-04
-4.986547282755141811e-04
-5.175223525841997612e-04
-4.727606156528542923e-04
-3.694012703098810825e-04
-2.185063729429898428e-04
-3.625239141204746534e-05
1.581557808810753977e-04
3.454328407095327066e-04
5.069911188972394235e-04
6.278585700654284747e-04
6.980454396057441703e-04
7.121702029184232008e-04
6.703518413781815559e-04
5.782226355008181825e-04
4.462176032205686566e-04
2.893359543644055849e-04
1.240725128046275925e-04
-3.435844090718573297e-05
-1.706261689343795628e-04
-2.724943164373383247e-04
-3.316652816919422636e-04
-3.449943749630426547e-04
-3.130701859450043308e-04
-2.420332185986061812e-04
-1.428087539198119073e-04
-2.550287583716187703e-05
9.743984943550740654e-05
2.131974831660929219e-04
3.099179516356474480e-04
3.791908501834055623e-04
4.163172912405862592e-04
4.205207719443919455e-04
3.947454262209739361e-04
3.429700944577185068e-04
2.726888002763684909e-04
1.935544615045720496e-04
1.148174914300742418e-04
4.411126786406758827e-05
-1.199382550817238395e-05
-4.978725128735941321e-05
-6.822116342151458455e-05
-6.777241045744064715e-05
-5.144786896495429746e-05
-2.485455601392220332e-05
5.067513489698633082e-06
3.379235920326768670e-05
5.667067915878639745e-05
7.146825597711506145e-05
7.586982379295022509e-05
7.045495415931027827e-05
5.841986290366807280e-05
4.522880773984978657e-05
3.492837876696259987e-05
2.940649079488011876e-05
3.441572800463307347e-05
5.335411611072436548e-05
8.480327944496477517e-05
1.265932523396186954e-04
1.737903262462186268e-04
2.186934391473692950e-04
2.531685981518891977e-04
2.704522600179734256e-04
2.653792963638229628e-04
2.342602756647644223e-04
1.776050665759040825e-04
9.599532993211134027e-05
-4.909859396594960898e-06
-1.157277132479574659e-04
-2.245173486295474910e-04
-3.179078436751287592e-04
-3.846605865455947479e-04
-4.142994884035753125e-04
-3.995547531692857719e-04
-3.385048333924129110e-04
-2.334009171408410097e-04
-9.146281015459317774e-05
7.510641494187977462e-05
2.496481770012079536e-04
4.144876045640581079e-04
5.519017829127249256e-04
6.428440580440689545e-04
6.737264781326946037e-04
6.372072420733476813e-04
5.319457948561328751e-04
3.618997700652234464e-04
1.403534016817728210e-04
-1.131750907818832312e-04
-3.758842547593433357e-04
-6.207705961711404300e-04
-8.211626105833472926e-04
-9.552908763611911045e-04
-1.005692485848798563e-03
-9.614032129553472554e-04
-8.237165891980247328e-04
-6.007935187014318149e-04
-3.112363643320302563e-04
2.011255592411797488e-05
3.601479268456020638e-04
6.738123691033932276e-04
9.287082393515436705e-04
1.094281991207721270e-03
1.149327975270553670e-03
1.083496755247763399e-03
8.969306546866375775e-04
6.021174266692854013e-04
2.228942156561674139e-04
-2.057451821943731031e-04
-6.437601014615411572e-04
-1.047520368690367867e-03
-1.375177424338830563e-03
-1.590691922838895558e-03
-1.668059425226266906e-03
-1.594237696698341681e-03
-1.372278402729626120e-03
-1.018979788064961530e-03
-5.639858942792915983e-04
-4.955435619279363743e-05
4.734040555103445538e-04
9.525567244587447493e-04
1.338935876336636585e-03
1.589023484612684138e-03
1.670435027863426472e-03
1.568776625689094094e-03
1.287930072348718227e-03
8.503572882043781587e-04
2.946086837834990292e-04
-3.291443457256351506e-04
-9.601000720910855693e-04
-1.535166071676658016e-03
-1.996224087327284295e-03
-2.293809734639726608e-03
-2.392807634687686355e-03
-2.276282978756393773e-03
-1.949951441548280259e-03
-1.439990279875313830e-03
-7.924534685202187529e-04
-6.814143757332567417e-05
6.622769701213149316e-04
1.326521894881435440e-03
1.856592200603218289e-03
2.194391981359026557e-03
2.299490528988396877e-03
2.153675648926574662e-03
1.765038215600677092e-03
1.163564914523875643e-03
4.028043071194665104e-04
-4.472840691931236111e-04
-1.304254678338471682e-03
-2.082966506386894553e-03
-2.706187755405403683e-03
-3.105846963012220963e-03
-3.237880018854230081e-03
-3.082360881900634252e-03
-2.647669091592438559e-03
-1.969970354075538128e-03
-1.110139077505717126e-03
-1.492280473512288424e-04
8.187054410467029322e-04
1.697165361577947749e-03
2.395441861105844939e-03
2.839165732549016503e-03
2.977927798282490462e-03
2.791303284526045706e-03
2.288792013485112763e-03
1.513447440750493190e-03
5.341708544883554425e-04
-5.566289197558910076e-04
-1.653245811715616399e-03
-2.647117155883025284e-03
-3.437664253119046120e-03
-3.942473704249591093e-03
-4.105397305001224142e-03
-3.902890426501158614e-03
-3.348677290896766301e-03
-2.490884452489750163e-03
-1.407854194322400668e-03
-2.021956912077523959e-04
1.008425416446799864e-03
2.102708082672569319e-03
2.967334119414611303e-03
3.511331199711128191e-03
3.674184490878121614e-03
3.430576804084204887e-03
2.796673053167363695e-03
1.826021554760617806e-03
6.074881802166624432e-04
-7.430623719831550619e-04
-2.095142703918972081e-03
-3.315289281993142288e-03
-4.282903306862375151e-03
-4.898293304256390659e-03
-5.092984537412143485e-03
-4.840751560460682112e-03
-4.157847940227305840e-03
-3.104330808298869007e-03
-1.778958587467645899e-03
-3.125589546477803128e-04
1.154374546006313408e-03
2.475412111111172098e-03
3.517212360073019607e-03
4.172345029885508177e-03
4.367243008741231516e-03
4.073742299119027278e-03
3.312674641883985027e-03
2.150345009940628736e-03
6.937418761352076753e-04
-9.182995451368284982e-04
-2.530690336422333504e-03
-3.983085607529020938e-03
-5.130593114782365169e-03
-5.856143343795823693e-03
-6.083268438053679450e-03
-5.781934678361865670e-03
-4.975212695475350611e-03
-3.736743458491056154e-03
-2.182646978177988587e-03
-4.626095197781322126e-04
1.254205134998047019e-03
2.797334840645814089e-03
4.011739787044178371e-03
4.772207426083783371e-03
4.993514155866853391e-03
4.646148000787984379e-03
3.755458210406940715e-03
2.400921701898273315e-03
7.088843640917091588e-04
-1.158529608433747984e-03
-3.020067902340477055e-03
-4.692926513323588539e-03
-6.011276839321054791e-03
-6.840423287652461735e-03
-7.092324017400359476e-03
-6.735839856382852195e-03
-5.799703029103457294e-03
-4.368396440474132947e-03
-2.579452799486743608e-03
-6.050766273864568784e-04
1.360759986615612139e-03
3.123266893810706414e-03
4.504746654538847178e-03
5.363829567266728895e-03
5.607749413717822567e-03
5.203693283227926909e-03
4.183629866752844317e-03
2.640713621229810910e-03
7.197666061304320261e-04
-1.395672399551467361e-03
-3.501369462514072016e-03
-5.390400211477186510e-03
-6.875302072191427985e-03
-7.805431872132126761e-03
-8.085406486223906466e-03
-7.681381256708536519e-03
-6.627225463648366705e-03
-5.021268346878188238e-03
-3.016226566578500586e-03
-8.065794830073296385e-04
1.389259938784426825e-03
3.354413789242786242e-03
4.893679467099885418e-03
5.849576924965843930e-03
6.121231527362583705e-03
5.675032496302294394e-03
4.546691811083466289e-03
2.839758069561900897e-03
7.136310211205538177e-04
-1.624357454141547603e-03
-3.948384700026897655e-03
-6.030978455562516737e-03
-7.663470141695029325e-03
-8.684595036920907118e-03
-8.989213271851525036e-03
-8.542279123949721858e-03
-7.382537587325043414e-03
-5.618106964874323983e-03
-3.420696953315703268e-03
-1.002418088984242646e-03
1.400140886178982431e-03
3.550247761639392045e-03
5.232132890130576468e-03
6.275733403631203466e-03
6.573093524549173533e-03
6.089513732390961637e-03
4.867676507627627033e-03
3.021436746759075757e-03
7.277531785083019272e-04
-1.790052091266503128e-03
-4.286108936986375920e-03
-6.514791778158291087e-03
-8.254400984949426118e-03
-9.330516199655422907e-03
-9.631675099793363809e-03
-9.122660371039505861e-03
-7.847944957281602005e-03
-5.928143691848399184e-03
-3.546870196446634278e-03
-9.331240211100602254e-04
1.658488654876253115e-03
3.974373829194372681e-03
5.788415306696098085e-03
6.922436375512789827e-03
7.265038010330352597e-03
6.780557100428897394e-03
5.515198985237620456e-03
3.591236468836573551e-03
1.197588449424510926e-03
-1.431315326958470559e-03
-4.036819083112674379e-03
-6.360572157795660320e-03
-8.169570866893663755e-03
-9.283675590593147217e-03
-9.589434175429392346e-03
-9.053103839923856005e-03
-7.723944400591888602e-03
-5.729769590792721176e-03
-3.263545108048209777e-03
-5.663726902037709721e-04
2.097262807354532098e-03
4.464007193733876035e-03
6.300687971834593830e-03
7.425791138945479417e-03
7.726528076587876534e-03
7.171447175738251273e-03
5.812417772714786532e-03
3.780330431398823930e-03
1.274148644538635258e-03
-1.461195160006166938e-03
-4.158995305183780557e-03
-6.555582980784235847e-03
-8.415793106809243279e-03
-9.555785812813289565e-03
-9.864493783530259990e-03
-9.312044678411523363e-03
-7.952501200717276841e-03
-5.918191890395952011e-03
-3.409886363858931693e-03
-6.737130573382382618e-04
2.021752488849585735e-03
4.410761224967756251e-03
6.257388079138139630e-03
7.378233070743051708e-03
7.664606854357497966e-03
7.089606834268621233e-03
5.709253236242299231e-03
3.657877289802325717e-03
1.136929903866274209e-03
-1.607334169460409874e-03
-4.305553618012157233e-03
-6.694148798531024749e-03
-8.540962012355584471e-03
-9.666672392574031727e-03
-9.964283885803938007e-03
-9.406868207663187514e-03
-8.050948139035250806e-03
-6.031561164883786699e-03
-3.550060717359973354e-03
-8.525325612144276071e-04
1.794507209430303268e-03
4.132439234263852144e-03
5.933841895612848236e-03
7.022001435277994141e-03
7.292291056235867749e-03
6.722911022343994528e-03
5.371554965868672107e-03
3.372904971588536541e-03
9.253207909723609433e-04
-1.730429022978393835e-03
-4.333832827972932539e-03
-6.630955137846592656e-03
-8.399091797274762725e-03
-9.469627525036130450e-03
-9.742328196581504299e-03
-9.196603361702231777e-03
-7.892156230484897658e-03
-5.962275382896987941e-03
-3.600271608375761601e-03
-1.042111422456329546e-03
1.461228286240225712e-03
3.664110916614555027e-03
5.351575290820597547e-03
6.362965227794717057e-03
6.604139279263026088e-03
6.058115718413934446e-03
4.784809901090688287e-03
2.913561423734395070e-03
6.324876328749613578e-04
-1.831607000486608437e-03
-4.237966843287675062e-03
-6.350711244831468670e-03
-7.967197805062244814e-03
-8.935369551091070645e-03
-9.169721232015816750e-03
-8.655084808979456729e-03
-7.452417112721366338e-03
-5.686460672181935933e-03
-3.536684562519604690e-03
-1.218392401660195121e-03
1.038379037036231151e-03
3.014096277175663894e-03
4.519438425806132295e-03
5.412806859774329030e-03
5.614446518902097005e-03
5.114321089928652864e-03
3.972537244950755803e-03
2.309953848711559371e-03
2.950634466658852992e-04
-1.869046893328576119e-03
-3.969414222059904421e-03
-5.802527861181755280e-03
-7.193667332832682365e-03
-8.015588465896072295e-03
-8.200809750448408153e-03
-7.743305649152285551e-03
-6.699602575637765567e-03
-5.183478515437915483e-03
-3.353113261141703761e-03
-1.394712843946645416e-03
4.980652626920015159e-04
2.142182459376299874e-03
3.382145697288056752e-03
4.105789820043151753e-03
4.254158719071126499e-03
3.827512180210173101e-03
2.882237838814942152e-03
1.524141090327088815e-03
-1.035554680378603879e-04
-1.835129310574001860e-03
-3.498219688534433790e-03
-4.932432451743536291e-03
-6.005546175656248722e-03
-6.623917431708325337e-03
-6.742257415381640306e-03
-6.364125476647478422e-03
-5.542610522081469968e-03
-4.374036741630319206e-03
-2.986531116790165814e-03
-1.523373873147618402e-03
-1.303582868825233941e-04
1.058457809530248886e-03
1.934531150100613113e-03
2.425540619555957220e-03
2.499674078043041554e-03
2.168080856179619136e-03
1.481680092153727767e-03
5.251422766570951629e-04
-5.951190672814563043e-04
-1.759919946958051666e-03
-2.853113178249844575e-03
-3.771283258340496838e-03
-4.432594898443716763e-03
-4.786372210167770015e-03
-4.814661294462384625e-03
-4.537243809814060259e-03
-4.002990805196260035e-03
-3.282643933577083280e-03
-2.461064266333438597e-03
-1.628392893828837108e-03
-8.685260284604101339e-04
-2.516830104164696031e-04
1.719704963551938121e-04
3.775495149720777032e-04
3.667933075956530194e-04
1.640171401067938139e-04
-1.893301512050903643e-04
-6.370922366364163182e-04
-1.117145961265439587e-03
-1.571721522801262450e-03
-1.953561328080055670e-03
-2.229256308651947089e-03
-2.383106955534719344e-03
-2.417068795583897454e-03
-2.350450310103479809e-03
-2.214902467392142714e-03
-2.048927025791656004e-03
-1.891780089147245816e-03
-1.776797498151054793e-03
-1.726095885234113850e-03
-1.747640970137571796e-03
-1.834763683291923582e-03
-1.966085250635234150e-03
-2.108077360370009309e-03
-2.222263062233221544e-03
-2.268822806609237502e-03
-2.214794089390906100e-03
-2.040703387610006206e-03
-1.742560520501774696e-03
-1.335911749390959399e-03
-8.558693734121371362e-04
-3.542554022163517391e-04
1.059480553705005254e-04
4.590462110336665166e-04
6.436647952552353169e-04
6.132422155156219039e-04
3.411300638866733310e-04
-1.732717100429435376e-04
-9.005750940327744355e-04
-1.783549687237162519e-03
-2.740492763512055851e-03
-3.671438591909198697e-03
-4.468908854062680555e-03
-5.030414129839277763e-03
-5.272394991946934006e-03
-5.137881329046329638e-03
-4.606911684869312296e-03
-3.701703553770853156e-03
-2.487113019100712329e-03
-1.067167444664521292e-03
4.236219279440919024e-04
1.834586412339058326e-03
3.011671583774330578e-03
3.814994306134550373e-03
4.135867327958146419e-03
3.908505580172048043e-03
3.120426888368606037e-03
1.816891555748115228e-03
1.008082740377759794e-04
-1.873579243396441673e-03
-3.917476905297203119e-03
-5.822821951712901789e-03
-7.384393828003003347e-03
-8.422837981594199011e-03
-8.800995769623124604e-03
-8.445504737453752089e-03
-7.353101574684772768e-03
-5.596868700206460157e-03
-3.321580290710651490e-03
-7.322070198722022095e-04
1.922222106410371306e-03
4.375406074560809870e-03
6.368440360954789881e-03
7.677995070686539046e-03
8.140519153543222114e-03
7.672002090356150328e-03
6.278878732226412206e-03
4.062164632879475441e-03
1.211309689398795903e-03
-2.011480081998488247e-03
-5.295910649879226849e-03
-8.311832084269200893e-03
-1.074357419320021330e-02
-1.232334987893640710e-02
-1.285685253233323153e-02
-1.224892158731769390e-02
-1.051660608123547794e-02
-7.791332433603175706e-03
-4.309081029236449395e-03
-3.923827558865669194e-04
3.582778819210812038e-03
7.219051927380424824e-03
1.013987304034007220e-02
1.202775275757579296e-02
1.265840634347785432e-02
1.192592917738952846e-02
9.858405915907034883e-03
6.618820900436092960e-03
2.493513074518429341e-03
-2.132420748984217851e-03
-6.811203969555187053e-03
-1.107573452239413170e-02
-1.448526381470767975e-02
-1.667078693981906973e-02
-1.737599161241976109e-02
-1.648502096501809969e-02
-1.403810941595799722e-02
-1.023271367194589915e-02
-5.408704694204267277e-03
-1.689562507242942449e-05
5.422130354391463056e-03
1.036762149542296702e-02
1.431185458256898843e-02
1.683329721372856663e-02
1.764129274608468301e-02
1.660850637686992273e-02
1.378823561666358243e-02
9.414097637914195169e-03
3.880294083303306371e-03
-2.292601775588505759e-03
-8.504123487684020488e-03
-1.413718400998782709e-02
-1.861601817360802533e-02
-2.146249586027665357e-02
-2.234973528345100130e-02
-2.113984387527373734e-02
-1.789992611577038290e-02
-1.290004997827660753e-02
-6.593962755978283533e-03
4.237805254698018514e-04
7.473387664502607192e-03
1.385545815032261131e-02
1.892045888809883517e-02
2.213459775207361757e-02
2.313490511454808357e-02
2.177099769260818982e-02
1.812484455455805332e-02
1.250568004404094616e-02
5.427687188571203407e-03
-2.438256163473002253e-03
-1.032821826212143232e-02
-1.745847630046664170e-02
-2.310367830607700651e-02
-2.667006457366030009e-02
-2.775728574066975082e-02
-2.620280279570888493e-02
-2.210239997493139430e-02
-1.580709934652498039e-02
-7.894719488624741058e-03
8.854061312277589513e-04
9.681664240887241993e-03
1.762258353313889830e-02
2.390382071926952512e-02
2.786940300030980172e-02
2.908089999973104828e-02
2.736328122538704555e-02
2.282751813283049463e-02
1.586871570226340566e-02
7.128800569086712891e-03
-2.559819980970557025e-03
-1.225375959588993410e-02
-2.099203615648595478e-02
-2.789062078545907070e-02
-3.222901091147548081e-02
-3.352774970282854788e-02
-3.159970512477446730e-02
-2.657411293633924615e-02
-1.888885075242350414e-02
-9.255344402217978092e-03
1.409443746656459558e-03
1.206897485013054550e-02
2.166902582166526509e-02
2.924124098912730257e-02
3.400181499730019208e-02
3.542957018476484976e-02
3.332499341561075828e-02
2.783402865805992971e-02
1.944217731674407340e-02
8.929981916205777942e-03
-2.699005970094741497e-03
-1.431228063726130983e-02
-2.475950954412155583e-02
-3.298593017941959388e-02
-3.813891412062911379e-02
-3.965586245199430315e-02
-3.732485567421413297e-02
-3.131078776958220317e-02
-2.214715724001638242e-02
-1.068790865807511814e-02
1.975161934649193561e-03
1.461024298370906457e-02
2.596817806334213857e-02
3.490772358626632876e-02
4.050807277254583200e-02
4.216298917515944045e-02
3.964709347034892084e-02
3.314652548244027136e-02
2.324029923101073036e-02
1.085438368363562250e-02
-2.821700774311455134e-03
-1.645642859311879577e-02
-2.870190034480294555e-02
-3.832588156258804474e-02
-4.433682602293770314e-02
-4.608665682561656485e-02
-4.333758792520341768e-02
-3.629258727230127990e-02
-2.558285646347090159e-02
-1.221142776733094570e-02
2.540364770017626735e-03
1.723852440731089841e-02
3.043305752691384189e-02
4.080022618329356976e-02
4.727791804156292188e-02
4.917147717374819454e-02
4.623137388811011245e-02
3.868047884352148608e-02
2.720128563690665108e-02
1.287337823208223667e-02
-2.927433236518390495e-03
-1.866071200719355422e-02
-3.277139815041522908e-02
-4.384477674626081900e-02
-5.074713143718322106e-02
-5.273907082753248599e-02
-4.955595533270251707e-02
-4.144191771652337708e-02
-2.913185332702410840e-02
-1.378335497709666860e-02
3.129117155542334057e-03
1.995982811186663985e-02
3.504881352244082482e-02
4.688542048791609351e-02
5.426213850983890863e-02
5.639546230110564773e-02
5.300994276157686147e-02
4.437070722197898609e-02
3.126425422423334544e-02
1.492842498509844296e-02
-3.065184392938016637e-03
-2.096329040043743916e-02
-3.699813729903557447e-02
-4.956422974819749139e-02
-5.737898597186988359e-02
-5.961319715981544531e-02
-5.597817796652428124e-02
-4.675995428020753020e-02
-3.279969841894379151e-02
-1.541526034025375233e-02
3.721447989273448005e-03
2.274612937369950572e-02
3.978390586094891074e-02
5.313412369755361742e-02
6.143880978719678393e-02
6.382265365667583179e-02
5.998391672918473860e-02
5.023111130482131592e-02
3.545909669026273831e-02
1.706768968262663971e-02
-3.170887881535458183e-03
-2.328268520846651923e-02
-4.128407027713960897e-02
-5.537686437393550543e-02
-6.412879765925239006e-02
-6.661833126196788080e-02
-6.253072485386008961e-02
-5.219627258715205803e-02
-3.656370904804842614e-02
-1.711494418558467956e-02
4.276603621175364099e-03
2.552648837344834165e-02
4.454112283802906525e-02
5.942523952459061870e-02
6.867201746294335218e-02
7.131240747245889966e-02
6.701787320630486766e-02
5.614178313481728300e-02
3.968881682240927439e-02
1.922235396108137179e-02
-1.538026458540717525e-02
8.787344624145019406e-03
3.270692749267229554e-02
3.419247205817944890e-02
6.525862601690970988e-02
5.980189127892584361e-02
7.082660725346906494e-02
4.597473958027296220e-02
3.330677608301572251e-02
1.199125288517396276e-02
-2.805105989096685903e-02
-6.173698263039893719e-02
-8.173286897053316791e-02
-7.740357852297342911e-02
-7.175608689204128476e-02
-9.228184512309742238e-02
-7.834427089069029293e-02
-6.344839923753625710e-02
-5.122674988782505157e-02
-3.097611721206317004e-02
-2.246922625516688601e-02
-2.560525273501434301e-02
-2.196114779022448338e-02
7.215769967036093913e-03
2.696913492769249104e-02
3.003728008246782377e-02
4.008700502921803271e-02
2.911174060690594617e-02
-9.181096823176458990e-03
-1.420973204689151767e-02
-4.967399406261059636e-02
-7.091295397064804884e-02
-1.535743074423014803e-02
-3.301043780436632713e-02
-5.692020017315082420e-02
-6.224730793797431105e-02
-3.558717538481982745e-02
-8.010052741766283957e-03
1.296074642224103943e-02
3.188893489568160253e-03
-7.080554844428343410e-03
-3.096494175456911135e-04
1.570574463284595684e-02
6.461624327783410671e-02
6.941591374486551225e-02
6.642640119984979941e-02
6.124198056371339682e-02
4.791231441794107510e-02
5.676257878134789714e-02
4.071741019972049958e-02
1.806756114032300820e-03
-7.311154456046038003e-03
-2.355377347651482073e-02
-8.170001191811473995e-02
-1.068686496391824947e-01
-9.645495461556119476e-02
-8.630990206358819805e-02
-3.910489122306355647e-02
1.945526581947631950e-03
2.418644446972320269e-02
1.151897285468161773e-02
1.587694789268249279e-02
3.243372295452903731e-02
8.344048092740147249e-02
9.350070156681634936e-02
8.855292505528875036e-02
8.879585747103196924e-02
9.459979516773084351e-02
7.289454273838692766e-02
8.393493095171528084e-02
5.802863409248261439e-02
2.824707518771130133e-02
1.100799509126678191e-02
1.877753604309445601e-03
-7.003638533202974359e-03
-1.319570207206739731e-02
2.787001127262218880e-03
5.235081647348004130e-03
1.128791952115416539e-02
2.838605481057921223e-02
2.394454406419346468e-02
2.231230441200310333e-02
4.260744153382082372e-02
6.881195991234140275e-02
8.417119128557143393e-02
8.604578566846879384e-02
7.546413607900272214e-02
5.664791843706373786e-02
4.492167823428068474e-02
5.409562273454900094e-02
6.068840833852540140e-02
3.639847455950942501e-02
3.031186316316556578e-02
2.990592770678222878e-02
2.669980741517103545e-02
2.428082661939257036e-02
1.420135860211269030e-02
4.053692231327232082e-02
5.786872149110794394e-02
5.183459867273082500e-02
6.662307009627735366e-02
7.318786088768985953e-02
1.177073195157217200e-01
1.786182353475010975e-01
1.754145005282323200e-01
1.782099595871556585e-01
1.586044779842881725e-01
1.565966370455857126e-01
1.161907053487222508e-01
9.735510232263444585e-02
8.473661843639392066e-02
8.730651800791640327e-02
6.798185418458638218e-02
5.150400424603086835e-02
5.725554187792367133e-02
5.747695493551960300e-02
4.610383702466696459e-02
4.979876460073533184e-02
6.323715923737871503e-02
5.924226094237981799e-02
4.938560140095001744e-02
6.557272720431947532e-02
8.163859523200701906e-02
9.478991291735899827e-02
8.335349702674543781e-02
8.721308447190956326e-02
1.092472793567593747e-01
9.315878088511325705e-02
8.462149394151539938e-02
9.216827370589682211e-02
1.022268256036451967e-01
6.066733297034709177e-02
8.887433849019474308e-02
8.835825208907374662e-02
7.144899400869980655e-02
6.551080120414533303e-02
8.133636602618551925e-02
8.539415720477351590e-02
6.975473548976451887e-02
6.220809880723174312e-02
6.916793042633576083e-02
7.657370657662158908e-02
7.784256110694567909e-02
8.716643855480979419e-02
8.577943376406321763e-02
8.367974288141899475e-02
5.267865124691861745e-02
1.338356778073864634e-02
-7.752388284462008450e-03
5.150873736628033134e-03
2.884979319231242845e-02
9.631130459340669567e-03
-1.767965946455951620e-03
-9.559069056788369045e-04
-1.074255266448432417e-02
-1.354903252416966852e-03
-1.540351967414446688e-02
-2.724603469325841132e-03
1.379759878912452040e-02
3.347917117197798942e-02
3.807607498689723202e-02
2.976633763116337539e-02
3.871047714005363544e-02
5.001131870347838571e-02
5.792640327344525386e-02
4.155087911593105532e-02
3.952486540725169001e-02
2.440158044959943318e-02
4.550321907969592100e-02
3.480581286237859062e-02
2.079595902813097946e-02
2.360928554014551928e-02
1.467635757412583813e-02
8.828660885126349278e-03
-1.912796355216624111e-02
-4.228644386615762474e-02
-3.336363283534812818e-02
-3.496018485088120409e-02
-5.983796731475864161e-02
-5.996150214185853172e-02
-3.429630568739527180e-02
-2.710892204539141342e-02
-5.408071960529636790e-02
-4.839191969086241440e-02
-2.894209667488056859e-02
-1.848485823982640858e-02
-1.867782510954904551e-02
-3.806619662838214846e-02
-6.635786320052421139e-02
-5.409067000587583496e-02
-3.321566167932789998e-02
-5.567329746108802546e-02
-5.144582831499057429e-02
-4.288545321600621685e-02
-3.485604767318876973e-02
-1.712304478887108350e-02
-3.202212582638166993e-02
-2.027866349808695595e-02
-2.703632321117591802e-02
8.236058022306133597e-03
1.470721992710968470e-02
-1.868263971556384864e-02
-3.420567901721655729e-02
-5.292788018531821570e-03
-9.539134887536611374e-03
-9.693081265151316794e-03
-2.730150605037222344e-02
-4.749514317863445106e-02
-5.460726821447817875e-02
-5.279323556381852744e-02
-6.544735024283451774e-02
-7.550094146083913271e-02
-6.931403449502403225e-02
-6.832098551926006624e-02
-6.901306702482877531e-02
-7.788583456194064780e-02
-8.551595575166076602e-02
-7.559469958126130429e-02
-1.079034914554019148e-01
-1.141468415164697270e-01
-7.069670758363280627e-02
-3.250137628091066822e-02
-1.924332666890753857e-02
-3.128630423345261924e-02
-1.949307310290591955e-02
-2.008146561556779786e-02
-6.049837252851762714e-03
1.058180560923389912e-03
-1.909909462018651721e-02
-2.162617588078883865e-02
-1.190649633326092485e-02
-2.974569690815274947e-02
-4.320846278639690896e-02
-3.136295259333557461e-02
-3.489251254014348602e-02
-3.099918133275135490e-02
-3.613288332508561573e-02
-4.328558011147413259e-02
-3.224598356910579611e-02
-1.923030483672399232e-02
-1.686724473055441209e-02
-3.324925884939034654e-02
-5.202342428465604046e-02
-5.456320959679850091e-02
-4.863839738577406535e-02
-3.361906535026729093e-02
-3.719181859783509542e-02
-5.955817137874300227e-02
-7.788550486948481177e-02
-5.303125130931003045e-02
-4.698649011755102328e-02
-1.800343308911674794e-02
-6.175724845674947228e-03
-2.624253673443627949e-02
-4.775452197118867925e-02
-1.431440247205884031e-02
6.591706198312022313e-03
1.683032766718162848e-02
1.525463188671625364e-02
8.195409124323906058e-03
-1.065810780429115451e-02
8.320705431175939859e-03
2.836905435011034815e-03
2.522781077387757642e-03
-2.189137796716755097e-02
-3.173524618380437617e-02
-1.202505764515318654e-03
-2.654428374682937797e-04
-1.540776796986248476e-02
-2.772453770310381177e-02
-2.892218745689585646e-02
-3.457429816115478727e-02
-3.011861320874600900e-02
-2.903236486778258685e-02
-4.293999575434818972e-02
-5.296980866037334645e-02
-5.494237490666861734e-02
-4.973133933401234497e-02
-3.852996791993129611e-02
-4.626960277040857716e-02
-6.140511880260704491e-02
-4.816313261358533271e-02
-4.510516131422549757e-02
-4.500162871507656231e-02
-4.846417631776206436e-02
-4.276391678772414190e-02
-5.386554216890827862e-02
-5.424943089100674881e-02
-1.623617773574490344e-02
-1.881551949432142684e-02
-2.879115129998938843e-02
-3.214351976175586212e-02
-1.629548025297447578e-02
-1.207079667461211092e-03
6.483050045985511156e-03
2.079720018447209218e-03
-1.855597951931725609e-02
-7.385757742118359559e-03
3.431366562480199500e-03
-6.047977146810348120e-03
-2.079046178349588242e-02
-2.381380076754268174e-02
-3.291895340143913967e-02
-3.537567286883362694e-02
-3.023350926883787426e-02
-4.202346444231500056e-02
-6.173018268944351072e-02
-6.537316514337639106e-02
-3.990307971842403656e-02
-4.007887685995305260e-02
-3.721717213011137282e-02
-5.302084198854466884e-02
-3.914889601557436372e-02
-1.852232788697028010e-02
-8.892373246719473268e-03
-3.203390420673889183e-02
-3.941249499426788261e-02
1.444205379666667344e-02
1.257425181613874843e-02
-2.275520201670720027e-02
-2.827226817311970578e-02
-4.677516819670647641e-02
-6.453870583098184066e-02
-5.606695139550789408e-02
-3.156301804945451511e-02
-1.754284335954146845e-02
-1.982354070358327558e-02
-2.007354175018883496e-02
-5.086820636236382559e-02
-3.358436042284660555e-02
-1.169764905356717073e-02
1.093040881120183744e-03
-1.408559256371524904e-04
-2.330595976703865591e-02
-2.557518167855675484e-02
-3.504614269489286782e-02
-5.150933606940236165e-02
-5.017603288062691402e-02
-5.177731745519397605e-02
-5.984253244757618828e-02
-6.830213484801059276e-02
-6.055234806184417451e-02
-6.750303111672566192e-02
-9.816429052112123077e-02
-8.300180671192883275e-02
-6.996803372442335356e-02
-7.885123927212825401e-02
-9.407476599153474783e-02
-6.961287968491569611e-02
-5.961946160869131817e-02
-6.072964353431777734e-02
-3.907636471534915723e-02
-3.826758193523636942e-02
-5.389464165711908838e-02
-3.984372544500278113e-02
-2.829775969919880174e-02
-4.750343732184832135e-02
-2.129815336004507731e-02
-2.085085676757905682e-02
-1.526656523998292866e-02
-4.517440723414085924e-02
-4.566189651462638360e-02
-3.451385279771285175e-02
-5.445419313742412559e-02
-4.165509213207849865e-02
-3.887696752506700215e-02
-5.953664895842836896e-02
-7.011896752935743715e-02
-7.240023575897405750e-02
-6.028251012677428300e-02
-7.022601752558331467e-02
-6.347554051354922788e-02
-6.242825375146784928e-02
-6.225347258742010281e-02
-6.665122052564138866e-02
-7.196835282500933795e-02
-7.830078546834763620e-02
-5.389884649786799709e-02
-3.295061939891977265e-02
-4.141192408765163174e-02
-4.958735255962459093e-02
-3.332142394580211997e-02
-2.724883452206711826e-02
-5.306986852706028351e-02
-5.902963415891059745e-02
-2.136130620317058804e-02
7.172734363607810582e-03
2.154346921270060278e-02
1.422436405981861857e-02
-2.246575031796704813e-03
1.122421832824100144e-02
2.208990931771803029e-03
-1.642553034214431357e-02
-9.163171196876110369e-03
1.112176898265926361e-03
3.963338551745632099e-03
-1.542613479029632251e-02
-1.851649654904523323e-02
-2.601917983595353201e-02
-2.245823630692146688e-02
-2.019339301060584652e-02
-1.134119921043030658e-02
-2.433329614195643004e-02
-5.471221072595466861e-02
-6.671972875357559674e-02
-6.605719261006059995e-02
-5.622950851381114390e-02
-8.002526949692219393e-02
-7.185064791566486697e-02
-6.895409647216119153e-02
-4.540388743755490591e-02
-4.094506403012715401e-02
-4.760501095697775020e-02
-5.351853911895410043e-03
-2.109071678889984369e-02
-5.019769318879582776e-03
6.438517613104544068e-03
1.764793266550417072e-02
2.227255345553216803e-02
9.474440298645053771e-03
-9.237836104349233385e-03
-1.317365851615867264e-02
-1.886078799826427371e-02
-7.791325357750858438e-03
5.023650909937824038e-03
1.093457789447650763e-02
-9.191396910174370882e-03
-5.302693045204365241e-03
-2.552170786069374309e-02
-1.181780244495098109e-02
-5.590831687954068811e-03
-7.547843149791573503e-03
-1.416455754862899763e-02
-2.066317548032617357e-02
-2.322787636285783552e-02
-3.088963328252246343e-02
-4.836476238102230263e-02
-4.075532410470512901e-02
-3.101260394461002184e-02
-4.340389865669801173e-02
-7.225608936712489550e-02
-1.015478173585020460e-01
-1.170132213029908275e-01
-9.453941840254993789e-02
-8.119285836154802039e-02
-8.642335424873634486e-02
-7.345091682006683886e-02
-8.316865481985447062e-02
-7.262648294824330941e-02
-6.336879417496496525e-02
-7.106316533920249701e-02
-7.729355018679612277e-02
-9.101108269085082803e-02
-5.530910236604529018e-02
-1.757024848138077910e-02
-2.093653638013739937e-02
-1.794748541325395796e-02
-4.315741783638633866e-02
-7.696536926243852106e-02
-1.003533421548266913e-01
-3.269787060675673901e-02
-4.055903681267583605e-02
-3.332590612939981961e-02
-4.117953853664232944e-02
-7.738140289230641122e-02
-7.799621214292447313e-02
-7.233008035616202147e-02
-8.742071373762769215e-02
-9.321333979590719354e-02
-8.698803685388883933e-02
-9.268028519743845561e-02
-7.483546008170166575e-02
-1.015992835513832293e-01
-1.175391926857732444e-01
-1.267571573547933983e-01
-1.139638611636793614e-01
-1.225655033530808069e-01
-1.201749151665024440e-01
-1.026622590541030472e-01
-1.039201660775848218e-01
-1.081334599442182742e-01
-9.515758882798201757e-02
-8.759591574108148426e-02
-1.030431910637434473e-01
-1.304352479010159049e-01
-9.395285484778523322e-02
-8.557286174013911673e-02
-7.814032883351666736e-02
-7.197184350317754886e-02
-6.382066164384087026e-02
-6.971989043693994914e-02
-7.839088447389751246e-02
-8.235325864800685514e-02
-6.288730369087840166e-02
-6.256195542178498437e-02
-7.772358591296467389e-02
-8.341820937530017299e-02
-7.715840935179420212e-02
-1.067122402472796411e-01
-9.562130266020842095e-02
-1.060920218807438198e-01
-1.047431808758842314e-01
-1.108166623741858453e-01
-1.090842267571837110e-01
-1.212790670324117859e-01
-1.151528880932411042e-01
-9.944374877202658003e-02
-1.031467708404857075e-01
-1.248854159378416373e-01
-1.397318828977451577e-01
-1.435236794118660841e-01
-1.233280653794144172e-01
-1.136585558764505732e-01
-1.037134147503840920e-01
-1.181055839644132160e-01
-1.027615878727644733e-01
-9.887950435143916250e-02
-9.069649273053449756e-02
-7.890259933421539529e-02
-8.951324631531126785e-02
-1.009217603705308552e-01
-6.961263577788999457e-02
-5.519683694512192429e-02
-8.137686708724889417e-02
-8.772577417822305379e-02
-9.139631225185473884e-02
-1.116456407555819624e-01
-1.202303981457645693e-01
-1.250421998945450974e-01
-7.314527080351340693e-02
-9.344808486404872216e-02
-7.525463766478483751e-02
-4.608954017993844438e-02
-7.950911075710394293e-02
-5.250381641357075579e-02
-3.711209415651579857e-02
-2.199113897678918461e-02
-5.448149590254358632e-03
-1.579486828811680482e-02
2.669678471110174117e-02
3.080211175866850656e-02
2.689154560366507560e-02
1.214453987891062764e-02
3.904461702170745896e-02
7.677695043047326473e-02
1.161228236997414454e-01
1.475476442132671040e-01
1.570877139923739785e-01
1.935387639913481173e-01
2.372499308562838194e-01
2.641411984835108639e-01
3.033846653382507030e-01
3.502330222786938507e-01
3.877809262979896032e-01
4.334656967429135754e-01
4.587322022530279098e-01
4.835926572721281347e-01
5.141529276578908902e-01
5.657183480785349383e-01
6.118944472340633878e-01
6.313577028370069844e-01
6.655433761105372659e-01
7.117431578256063762e-01
7.318222300762802224e-01
7.375652414225459808e-01
7.121749180655926326e-01
6.959891355060775497e-01
6.700841693424715029e-01
6.571694131339474998e-01
6.221930693559221126e-01
6.017932214739525332e-01
5.903808840166184790e-01
5.627157822369012186e-01
4.842787150970081500e-01
4.306322647325329100e-01
3.697377776325063148e-01
3.120107985420523811e-01
2.593868371559318597e-01
2.170339091913166540e-01
1.636951857599156512e-01
1.234050280040400183e-01
9.007600925726931551e-02
9.522006192486269505e-02
9.297963231801426032e-02
7.998702039534244523e-02
7.536383730865220398e-02
6.355767251004806884e-02
6.218509337078331756e-02
7.249995909595507992e-02
5.240315682323273133e-02
2.716875333368645382e-02
2.348370203673019740e-02
3.261753492537666776e-02
3.593244548957486018e-02
7.207288160372915531e-03
2.151482221478137613e-03
8.917717201146063699e-03
1.122012512563315412e-02
-1.639498005179256673e-02
-2.117573178984608062e-02
-3.737314443773369355e-02
-6.489908791826284884e-02
-7.628495063255505415e-02
-6.667088089800810025e-02
-1.717443138624438065e-02
-1.098013143318199436e-02
-3.783275030827031038e-02
-5.519861814019032253e-02
-4.781951894401333114e-02
-5.178776634709263138e-02
-3.987175333438319064e-02
-5.030293865280116572e-02
-6.043619972381399780e-02
-5.652555871604346416e-02
-5.876237217924029643e-02
-3.700597210687518734e-02
-2.748390002226995532e-02
-4.113341357078151295e-02
-6.953990612027584339e-02
-7.460748852283217991e-02
-5.998933039420249747e-02
-2.655270503916672131e-02
-2.484901994472053788e-02
-5.098705488152839582e-02
-3.572607547295245101e-02
-1.765375705443732179e-02
-4.944742631878310674e-02
-5.467404865163270899e-02
-4.963236255084790133e-02
-5.463500016734736814e-02
-5.192578292265916801e-02
-5.489868941803658503e-02
-6.075606484544499031e-02
-7.401431788960337321e-02
-7.102435719181898754e-02
-7.843801252603103957e-02
-7.592827875918489733e-02
-6.662821896595293170e-02
-6.112199464096781248e-02
-6.887842953307332650e-02
-4.873380533054226527e-02
-6.502436053044191588e-02
-6.821728964225751146e-02
-4.347473149641405132e-02
-4.317875111860704218e-02
-3.768480606791466125e-02
-4.824620256956765191e-02
-6.326990036820817620e-02
-4.985530448222433297e-02
-4.299762192103112612e-02
-4.810661439947949702e-02
-1.931264601010308432e-02
-3.684083443046493045e-02
-4.626180356782788605e-02
-5.416374153045594442e-02
-2.763391761066702479e-02
-3.157359481306246107e-02
1.728376259804015325e-04
-6.849056618627197279e-03
-2.374506405889136723e-02
-4.025969875977266493e-02
-3.426414113350247093e-02
-4.442579089005085219e-02
-6.290036033767211487e-02
-6.566298538905103455e-02
-5.089817201438563699e-02
-3.769622487927730414e-02
-5.413882555389466777e-02
-6.703305667823242220e-02
-3.909221861978988410e-02
-4.060874433942348455e-02
-3.251051281104856694e-02
-2.442413475898833758e-02
-3.866182807064491578e-02
-4.797745232110282865e-02
-1.325887746453316418e-02
7.301665313502569976e-03
1.914868259990654131e-03
-5.751942744905987059e-03
-7.845300876768986770e-03
5.966277807876044573e-03
5.677372084957218318e-03
-6.413812970647213285e-03
-6.398595456110510449e-03
2.171459623895102831e-03
2.255443023613273867e-02
2.345309306875718869e-02
1.689128570560523290e-02
6.754734683132812556e-03
3.274886598562332801e-03
1.023215575224535948e-02
2.983712634176464290e-03
-8.090340319416265691e-03
1.277714152272610426e-03
6.214185350863876689e-03
2.464550362345194201e-02
9.722179577212400337e-03
-1.878330633561713786e-02
-3.066612031867570198e-02
-8.501058499488987202e-03
-3.726147140967678035e-03
-7.446963161387425145e-03
-1.837561096345731448e-03
1.011295340924929509e-02
7.096113666161002476e-03
8.849370165195338811e-03
1.121459844080457957e-02
1.813158907449368556e-02
1.301964414171179196e-02
2.934796807891428688e-02
2.737300862724701203e-02
4.822433171738431390e-02
7.860197173438676632e-02
8.011017646766996347e-02
7.427032909611142042e-02
2.819821716088512231e-02
3.362534159555462948e-02
6.094201859401706528e-02
7.658364606302078825e-02
7.673266846557980081e-02
8.288373471395316106e-02
7.461606621741989631e-02
6.311960652501828750e-02
6.502454332341905952e-02
6.628043384664353277e-02
4.400307694255969904e-02
2.317683711031687244e-02
4.709593902683913147e-02
6.098649986482174157e-02
4.230665099092924264e-02
2.984865960207671795e-02
4.226337772712586427e-02
5.434210939824150877e-02
6.472289560205675418e-02
5.744977311684797139e-02
5.526707922168538900e-02
5.540367175066829297e-02
5.739971219199212910e-02
6.592843576943614725e-02
7.333256127117956935e-02
6.930258155751020666e-02
5.624963837223766194e-02
5.579387911233555514e-02
6.271132483953166525e-02
5.665107764655560874e-02
7.005087507543789060e-02
7.056131288434261406e-02
6.783258940337538734e-02
8.656282119784224072e-02
8.992915475595258945e-02
8.320766705567292365e-02
7.450825313596018407e-02
7.184794407262505567e-02
8.005533510368512129e-02
7.842499879513095684e-02
8.248931304165127432e-02
5.958521453854664224e-02
3.735501419847336857e-02
2.724712684259712053e-02
1.229542143388009587e-02
1.401859462213215363e-02
3.456122313390190548e-02
4.726724658206173102e-02
4.133922455341619562e-02
2.086607644793643523e-02
3.120605101324711028e-02
3.300553269449997551e-02
3.177096418738164368e-02
3.214679740232830041e-02
3.063913542643380283e-02
3.636912945648545364e-02
5.632325432279422506e-02
5.429228687964923750e-02
5.621492994983712244e-02
6.077903740452655912e-02
4.280700835197136234e-02
2.642122612816104332e-02
1.966020078234835544e-02
3.653551300262741774e-02
6.245203877374211343e-02
5.468573690365377549e-02
5.530714782124211693e-02
3.865619723286389114e-02
1.091768228566510762e-02
1.014410768964670029e-02
-2.082886722217910935e-02
-1.334350682065178761e-02
-1.471396813154900868e-02
-1.238487629890613201e-02
-1.616648710579208018e-02
-3.611557108514396042e-02
-2.888697613163062825e-02
-2.907677065582527087e-02
-1.979692339633273845e-02
-1.293897122375926856e-02
-1.014524291099999642e-02
-2.050308014247888277e-02
-2.358730277569083544e-02
-2.154763708609366835e-02
-2.028182399488661497e-02
-2.543262296688027571e-02
-2.118952558547924220e-02
-2.923819305914546890e-02
-3.502171576832078387e-02
-8.408848060233120592e-03
-6.745488381915742959e-03
-1.004288304993197767e-02
-9.815380061179768134e-03
-5.691519010232036491e-03
-1.501524811133509579e-02
-2.611103460767564763e-03
-2.155767217321490764e-02
-2.202004473986010624e-02
-2.233054064973531705e-02
-2.586026536466044801e-02
-3.560345031563136309e-02
-3.810699080102641911e-02
-4.306886261633560004e-02
-4.181072161292920253e-02
-3.709349139432865927e-02
-3.785485188335246248e-02
-4.212809658247192168e-02
-4.272880827771757817e-02
-5.163937751753399502e-02
-7.604617820144635165e-02
-8.421903869870031589e-02
-8.162996216931275861e-02
-7.894951818983389491e-02
-7.370120388871179151e-02
-5.422722126370566054e-02
-4.638352848942247503e-02
-5.388920350970348438e-02
-6.581834340136169526e-02
-6.035331875896368659e-02
-4.805245728724306942e-02
-3.814349342763667661e-02
-3.142228587597639677e-02
-3.040654787984974072e-02
-4.054396486062828570e-02
-3.764879172867197088e-02
-2.175172882305261360e-02
-4.833251916619857314e-02
-4.068183039380923044e-02
-8.100823856003851187e-03
-1.517863383441277192e-02
-4.310586654955748248e-02
-4.596996517416775119e-02
-4.216470932225643148e-02
-5.943582641622480872e-02
-5.911948406466169953e-02
-5.565640854575267665e-02
-5.329038000764200339e-02
-5.203132444843600046e-02
-5.577232719427568930e-02
-6.559020629122939983e-02
-6.051651297979800115e-02
-5.860059204645423625e-02
-7.240553185093742683e-02
-5.803022565607471317e-02
-5.456284776454198987e-02
-5.737592897477714754e-02
-5.449888539412341137e-02
-5.322200955615569162e-02
-4.695088352218512034e-02
-3.671330603017765315e-02
-2.777800226767816738e-02
-1.680997668533364131e-02
-2.065673354127454259e-02
-3.368015103349021599e-02
-2.524575417558331744e-02
-2.967448755951977712e-02
-3.722697839335659120e-02
-3.547004713237120188e-02
-3.025863767205860116e-02
-2.371664118079054584e-02
-4.079687808120124881e-02
-5.335948019288778987e-02
-3.245650145491192629e-02
-3.402579512804445455e-02
-1.935771259628042695e-02
-1.533884232332380186e-02
-3.420087864700821489e-02
-4.347613172867047932e-02
-2.609759352883209149e-02
-3.111803093206868404e-02
-3.455691616860885607e-02
-3.665955444418944609e-02
-3.870248231342239553e-02
-6.253876930188498329e-02
-6.496363325588001836e-02
-6.594394370410180950e-02
-5.251923654713961526e-02
-4.229858653247753342e-02
-3.406400927040801468e-02
-5.388894394377663488e-02
-5.417012088339043241e-02
-5.591100779333536830e-02
-3.625628780327029566e-02
-3.432114880234306969e-02
-2.969980085693446625e-02
-8.758747491269083460e-03
3.451266864412723401e-03
1.038253515789000492e-02
7.052976064774396647e-03
-1.710624462536641799e-03
-1.204473085780845276e-02
-1.950141574488792329e-02
-3.745272755310759261e-02
-3.225153518140328607e-02
-5.487180471614196836e-03
-3.822876351703941716e-02
-5.035589824747172677e-02
-4.016128578963982371e-02
-4.998574335279196146e-02
-6.560371718740025393e-02
-6.099741275811819408e-02
-4.256345736199387830e-02
-7.372473904332074723e-02
-5.096595486438879052e-02
-5.880941842923960439e-03
-3.694921964957239430e-02
-4.479431049834432799e-02
-3.483007490815456797e-02
-3.722521961422273207e-02
-4.690680108412211002e-02
-3.332299969941632245e-02
-2.694163741684720004e-02
-3.553886939520466137e-02
-4.197493842285082710e-02
-3.731540941800194633e-02
-6.690614375419350231e-03
-8.461869586320541065e-03
-2.625109393057849239e-02
-2.440352772682898019e-02
-3.533827012452077365e-02
-1.737859355201286371e-02
-2.422548877779320819e-02
-1.578739286665054725e-02
-1.956154170994019170e-02
-2.478614443993632649e-02
-2.992776521694593544e-02
-4.061244434828219924e-02
-6.169477982430367213e-02
-6.108402294841076136e-02
-3.333462456334157498e-02
-3.302432346689999909e-02
-6.096634617552069979e-02
-8.250606613641180143e-02
-8.175242733036028331e-02
-9.102187362643615609e-02
-6.707974755830632685e-02
-6.977437988174589600e-02
-7.478508748409014306e-02
-5.472057585032209098e-02
-5.005994955662400325e-02
-4.265036754901557758e-02
-4.746739808234694269e-02
-5.123857036534554266e-02
-4.536282625408574742e-02
-4.783525294715090109e-02
-5.036600634351029449e-02
-1.867086045043264697e-02
-8.404625717660083040e-03
-1.223387756762464584e-02
-2.002566308236286563e-02
-2.457634233390673661e-02
-2.358626540282338091e-02
-3.492543547012143257e-02
-3.193932523089029751e-02
-4.102759016021723104e-02
-4.332869913224975805e-02
-4.312441898436100707e-02
-4.703701201795500164e-02
-6.015030733078030600e-02
-5.406834893988790580e-02
-5.203452445129849724e-02
-5.063250349433615072e-02
-5.528341637845311102e-02
-6.074791723872624560e-02
-6.790906114958619733e-02
-7.311420599176134127e-02
-7.116588465809992048e-02
-6.609039941234778892e-02
-7.092230730140745842e-02
-7.174397885279013010e-02
-6.666449303204718957e-02
-6.340405788041902913e-02
-5.457919663813968342e-02
-5.853318929665364545e-02
-5.322989943505740396e-02
-4.984646177571341874e-02
-5.793165149720985729e-02
-5.318698103297833657e-02
-4.140324906986740661e-02
-5.736284873841938914e-02
-5.357212044752979185e-02
-2.514101122992994097e-02
-2.430952965457513354e-02
-3.135941987708263518e-02
-2.206146714012957588e-02
-3.810628709117516721e-02
-6.395031025931458002e-02
-4.398133949939106446e-02
-4.528784461188389843e-02
-5.433927240316633461e-02
-6.234280390715750408e-02
-5.756471731141855896e-02
-6.903621429597142645e-02
-8.184329635928344615e-02
-7.387590910956597090e-02
-6.511193223808076080e-02
-4.176001784817449242e-02
-1.166215733931696974e-02
-3.906385227351109879e-02
-7.897754578326705854e-02
-7.379033044870908498e-02
-7.494949766672849567e-02
-7.403251070820694724e-02
-4.720343419808713248e-02
-7.495835639229100900e-02
-3.782413251783062896e-02
-1.459636749061992908e-02
-1.973887981330818553e-02
-1.829838357364543810e-02
-2.116532938907227102e-02
-6.812721192931775471e-03
-1.277296818851088311e-02
-1.805109350896904469e-02
1.871061607283548006e-02
-3.994690922400262467e-03
-1.743792751717116937e-02
-1.327748812166257286e-02
-1.942686937137561021e-02
-1.633730232595525383e-02
-2.238188858288915617e-02
-1.468515743743090129e-02
-6.529918926292163639e-03
1.007001616260921883e-02
-1.661359795577892207e-02
-4.108907621357796303e-02
-2.842096423736684141e-02
-3.370289264070060881e-02
-5.736025952909318271e-02
-5.620694749040333615e-02
-3.988757349259501594e-02
-3.379790487225023399e-02
-4.740931750225196861e-02
-5.950941209101324320e-02
-3.496274450770598535e-02
-2.159840713758184177e-02
4.605255548364377283e-03
-2.934408683765269560e-03
-7.970389653770226790e-03
2.003867316180943381e-02
1.200918686321322815e-02
8.445846945115090265e-03
2.172457813013330824e-02
3.017291179247895416e-02
3.454966807195483658e-02
1.927498437540003245e-02
1.564940723158701752e-02
1.267963820668293121e-02
1.318862036598974358e-02
2.037103450155365592e-02
1.182928559268470181e-02
-9.402687738161719100e-04
-9.975383752881955557e-03
-1.774286679626311397e-02
-1.595732192197561045e-02
-1.118670564521303742e-02
-3.380480442780998962e-02
-3.329035019672475781e-02
-3.776846618176426390e-02
-3.470063610647556446e-02
-4.302723493262249066e-02
-6.375164246921083411e-02
-8.119773717231346111e-02
-8.301678208937693371e-02
-6.110848387845900509e-02
-1.791950906704590715e-02
-4.237450144346558562e-02
-6.491244265774323563e-02
-4.475604501391882567e-02
-2.750899080300851784e-02
-3.379557400049885280e-02
-4.766344960951873766e-02
-5.142499985138762608e-02
-4.149580335011224946e-02
-3.304544641121306969e-02
-2.285297926599028778e-02
-2.727180422957229886e-02
-3.967516822660333009e-02
-6.035453451179394885e-02
-5.860359030066544100e-02
-5.535613152689806971e-02
-5.117574632851848437e-02
-5.681722329131451421e-02
-6.302697069002663466e-02
-6.886972783818921806e-02
-8.923602696980555138e-02
-7.823688410918312741e-02
-8.516554506900402000e-02
-1.133741550647830165e-01
-7.517778133035570021e-02
-6.878703830767671223e-02
-5.758627924603543224e-02
-8.602473683578347463e-02
-9.810447963247981296e-02
-1.090069587117103167e-01
-8.679183873528457938e-02
-7.664192386286081127e-02
-6.596363186865374095e-02
-6.636651450000351227e-02
-8.187889066664331972e-02
-8.246470802100312747e-02
-5.412011862183876976e-02
-5.646852149653039388e-02
-7.591018704151614171e-02
-7.721872325327627795e-02
-5.951228817291386725e-02
-5.471299789873646652e-02
-6.553419303511190397e-02
-7.391445747249328346e-02
-7.958488118464064620e-02
-7.362729242916908612e-02
-7.368763206134093524e-02
-8.861404902635536263e-02
-1.012627217134267621e-01
-9.765749418531016746e-02
-9.760166702035436015e-02
-9.484740050541454193e-02
-8.199328073767171710e-02
-8.052507524281739271e-02
-8.427384770875145925e-02
-1.088278210284308323e-01
-1.093217455184209708e-01
-1.077336850522124662e-01
-9.326559896829712815e-02
-9.394966517481338764e-02
-1.163133632683424901e-01
-1.168842036981638521e-01
-1.020758529181854668e-01
-6.720119447511405109e-02
-7.973183998168766051e-02
-8.846558061052667288e-02
-4.903900439515147813e-02
-5.739311416916902109e-02
-7.037984846335010314e-02
-5.989738602099203835e-02
-4.608261651701892059e-02
-4.965352850844804988e-02
-7.071700728539749570e-02
-8.261230359958765535e-02
-7.451268512554154455e-02
-7.952687135081452918e-02
-7.186137644938200841e-02
-7.967052282189915346e-02
-8.210533948516608727e-02
-9.515733379630147981e-02
-1.113204736241922843e-01
-1.002555960212980768e-01
-7.376137959569248337e-02
-9.352417429307943730e-02
-1.022261024818415659e-01
-9.187706747659842021e-02
-1.017595197796809930e-01
-1.201410422158717406e-01
-1.081588394242925522e-01
-1.047535074298251295e-01
-1.196860960012554737e-01
-1.242191881359720057e-01
-1.250155612976270314e-01
-8.067828983181252189e-02
-6.812847287511099303e-02
-6.751099089021543598e-02
-5.503715034140339857e-02
-6.269737550102347234e-02
-3.762664009303337553e-02
1.641744402390615115e-02
4.348020161042182030e-02
6.194255143157481602e-02
5.981101801799711820e-02
5.464428408446246610e-02
7.004133879452863198e-02
8.125604963415031246e-02
9.753410650577006014e-02
1.144148830490564900e-01
1.150647244033057848e-01
1.410436962453031073e-01
1.558057543351870633e-01
1.861388652196662163e-01
2.097680380900871500e-01
2.280664954032440017e-01
2.941262396724457218e-01
3.529243129864990114e-01
3.757970568766376696e-01
4.056459237794989292e-01
4.313506603900224556e-01
4.388522354798586878e-01
4.709484063305220958e-01
5.234713895797551420e-01
5.611438298981210604e-01
5.783176358647308390e-01
6.660041338970695834e-01
7.152914577741548152e-01
7.235090059632831583e-01
7.179320534871747039e-01
6.924412172230862694e-01
7.420782700991545022e-01
7.254855794607747432e-01
7.124489490985607132e-01
6.803700640218166562e-01
6.821644587980268959e-01
6.650620590812459376e-01
6.054770587427475981e-01
5.326449529682314443e-01
4.564935965808148977e-01
3.985776173090461172e-01
3.545368933429314251e-01
3.186656426720924085e-01
2.470024998767502700e-01
1.845749248766765105e-01
1.287802525524207597e-01
1.041981291361397943e-01
8.483668915768557972e-02
7.751550715839153338e-02
9.471613519645494250e-02
8.271826041431912246e-02
5.474981706277749771e-02
5.824280049952756944e-02
6.168461091661488205e-02
3.343818550581741100e-02
1.461798831685197364e-02
6.677673482794743709e-04
3.021917905916482461e-02
2.782255686181766413e-02
1.262720892814883644e-02
6.557208832641464591e-03
1.840852901051702115e-02
1.123934659251933990e-02
1.648115896244247997e-03
1.694522565170534373e-02
3.597931960346319180e-02
6.686761424086494487e-03
5.528688655190572288e-03
-6.836276433970653321e-03
-2.582941361403903041e-02
-3.380525559553010373e-02
-2.853840488935936726e-02
-3.915955098088388930e-02
-7.758238356242393857e-03
2.148095762764043459e-02
-2.819002458808436695e-03
-3.440655359098808430e-02
-5.950923805599162009e-02
-5.308213924115479099e-02
-3.361472038259781525e-02
-4.053806254070597276e-02
-4.884323327949123550e-02
-5.912296074458034401e-02
-5.232447974898270238e-02
-5.842845846335370519e-02
-7.443303470636031260e-02
-7.203273422057510089e-02
-6.578244719731837775e-02
-7.261110944405266276e-02
-6.957831284096878399e-02
-5.948137911481551909e-02
-4.283497536821123663e-02
-3.839708712484177222e-02
-4.532424132186761712e-02
-4.336655156505799663e-02
-5.680789516855014321e-02
-4.597160235979692866e-02
-2.895448600207861656e-02
-3.184875418963696581e-02
-3.867135303876453878e-02
-3.671435787633280101e-02
-5.602540320638940696e-02
-2.327383956688940103e-02
-2.368675838036594580e-02
-5.708567915776716767e-02
-5.759058440887643293e-02
-4.233332769809088764e-02
-2.598690014193155706e-02
-5.662233450709430044e-02
-5.581561322957367954e-02
-6.201077324023664822e-02
-6.991819038852717383e-02
-6.847059747525072182e-02
-3.903044045151551206e-02
-5.175212193534182992e-02
-5.929565067742705725e-02
-5.140453709140255234e-02
-3.978383270166031827e-02
-5.671709917897932440e-02
-7.221640940511275808e-02
-5.792127028753046858e-02
-3.466373499837380190e-02
5.618650222139844053e-03
-1.013727164959789435e-02
-2.760713891042185578e-02
-3.116367481731189756e-02
-2.242952291952807209e-02
-1.544336656897862814e-02
-1.624523867609803385e-02
-2.434284964968350118e-02
-2.034886067417367161e-02
-1.620398408763653458e-02
-5.339260371575657582e-03
-1.017986543983853860e-02
-1.456262124973781158e-03
8.996909762265872801e-03
1.675922359046147503e-02
4.552398973178828356e-03
-2.566020016209225041e-02
-2.359234479445632138e-02
-2.683916132270021404e-02
-2.635324402606692429e-02
-1.493857647517760762e-02
-2.573919769910622962e-02
-2.074574735706665243e-02
-1.873678829531028045e-02
-1.729352328956521023e-02
-1.206603196282019647e-02
-1.327359328686030654e-02
-3.124018804399591315e-02
-3.034108236172478046e-02
-2.413165702877950042e-02
-1.356440480537097690e-02
3.301184271221304940e-03
1.382484618417443092e-02
1.247088099411424594e-02
1.001944872416327820e-02
1.693342792307599154e-02
8.812427246825710325e-03
2.064858755300047477e-02
2.461442025351209817e-02
2.975949326095544967e-02
2.703692667865351465e-02
2.768055325111131240e-02
3.177021918121525346e-02
3.921640167266349231e-02
2.735213313681554570e-02
3.433315407077297543e-02
2.114866962744367529e-02
1.304819241841205513e-02
1.794867440037613282e-02
4.180309074613069997e-02
3.870983749324314466e-02
3.299834989619879200e-02
5.499354657086337472e-02
1.650838352452557722e-02
-1.063447774368794091e-02
1.228547271940642199e-02
2.715263404270139291e-02
3.254764627449431569e-02
2.645117282808107095e-02
2.807884908991873860e-02
7.013639016121576975e-02
5.763617503345028203e-02
6.495767227348388240e-02
5.485004675017401965e-02
6.021164729128425375e-02
6.723189158596411252e-02
7.019575414306947203e-02
6.570523427009844486e-02
7.538166242175370346e-02
6.997015838696099554e-02
5.725219547519430630e-02
4.225121444475824634e-02
7.170361309802029959e-02
6.650722167328626533e-02
4.662060759068788890e-02
6.955697059076951239e-02
7.230639443865853611e-02
6.460168935667302825e-02
5.612843804698541134e-02
5.526340317174745220e-02
1.003736105843412996e-01
1.034639807193181021e-01
7.166307649919756440e-02
6.441270309969786279e-02
6.374563418204373666e-02
5.657952312497438463e-02
4.453316377312394048e-02
5.474358392762546099e-02
4.669913881027409897e-02
4.154820393089581065e-02
3.360405683141960698e-02
3.757469363079833646e-02
4.923969009114591289e-02
6.068915957740596279e-02
7.276397329289668869e-02
7.363834918210714064e-02
6.434871002736027024e-02
8.365411655242341316e-02
9.144267228126604086e-02
7.411054583129839113e-02
9.033089466678229096e-02
7.164185085714373791e-02
5.840206719820671688e-02
6.210622634923505803e-02
6.749561180642971170e-02
8.333600300332778821e-02
8.057196737353881921e-02
5.360148496118145867e-02
5.809188606789747467e-02
5.463941486147020493e-02
3.950976158441120434e-02
2.821564822445520732e-02
1.551670984695375718e-02
2.811548167943815624e-02
3.931207470804928827e-02
1.174025175156358236e-02
3.862278103667307616e-03
-4.470277057471550020e-03
1.890840603969835138e-02
2.665102808311406099e-02
2.041281596558679537e-02
1.930372461614039692e-02
4.554080380963832636e-02
5.904607788574641608e-02
2.605915737740500254e-02
1.717478116002431332e-02
-4.537807247579822567e-03
6.556348031960063105e-03
4.112559368361336232e-03
1.436569830928502434e-02
1.608762525091102930e-02
2.302826112903669925e-02
2.107208546240869895e-02
1.325959134219159563e-02
1.619320253213135663e-02
2.025807419302686624e-02
8.337965381876505377e-03
-6.333252924171167697e-03
1.692797975687138079e-04
-7.235044837540817453e-03
1.048188244373356864e-03
6.711479189519924289e-03
-3.333233122533858783e-02
-2.593043537372032720e-02
-1.007755370305443016e-02
-1.910779568930906502e-02
-3.770235479639155035e-02
-3.016381758030035887e-02
-4.090467043644959583e-02
-5.482942224479854521e-02
-6.452707530163606653e-02
-4.118013474443858735e-02
-2.293092225733696365e-02
-2.601854234311513914e-02
-3.182074147113497786e-02
-3.390153021612940520e-02
-3.076679656373547400e-02
-2.159224903194992273e-02
-3.106375288465398204e-02
-3.148950798202049262e-02
-5.453581933165705525e-02
-4.285788736982670821e-02
-1.957231210633191346e-02
-1.982507144484741551e-02
-2.611948640710189118e-02
-2.049837966762607655e-02
-3.385335974182072938e-02
-1.199101123812779113e-02
-1.132113495669995196e-02
-6.217280042204217927e-03
-4.698406944700764254e-03
-1.453658929313672923e-02
-3.054099726740907433e-02
-5.600515846969191663e-02
-7.043432581034352047e-02
-5.670617292328569703e-02
-7.677266536112245521e-02
-7.321886826155873940e-02
-4.781030434542759416e-02
-2.940902431281541135e-02
-3.965400656377042476e-02
-6.339696202237536660e-02
-6.996298468119166447e-02
-5.949882687485858607e-02
-5.395671543439895662e-02
-4.324004123594032967e-02
-7.987351576255076469e-02
-5.535516310711234567e-02
-3.406145422375005116e-02
-4.139703900073972431e-02
-4.080233936441624021e-02
-3.137034059334960906e-02
-2.554417099179821793e-02
-3.539139395230318091e-02
-1.903828422813472199e-02
-3.352720202231908309e-02
-4.508654986845823942e-02
-2.554663493151415610e-02
-2.272328353063798184e-02
-2.377240899807245983e-02
-2.227991259520236550e-02
-1.917337490264430996e-02
-4.286816684375527320e-02
-5.775159570319422786e-02
-4.240261125328816799e-02
-4.017790707200059874e-02
-3.271805139204908563e-02
-1.502848927151663461e-02
-3.526967028897494416e-02
-3.129622830850541104e-02
-4.266286186487885934e-02
-3.661920026753259783e-02
-5.367592471746540639e-02
-5.859938059236050045e-02
-4.596437166214138725e-02
-6.198002719709766462e-02
-5.568738079332423430e-02
-4.158257067515744310e-02
-5.011300596019986620e-02
-6.766878955292260356e-02
-4.964725224972903195e-02
-2.769501074262573082e-02
-4.477574797096180864e-02
-3.805182449456885607e-03
-8.524500236437443368e-04
-1.005740589775929589e-02
-1.931724297109757571e-02
-2.720594616047836145e-02
-2.853191864270891373e-02
-3.150186394594663847e-02
-1.368909895814235736e-02
-3.486261235761818102e-03
-4.422042525293261306e-03
-1.193256725478528124e-02
-2.595470825969772855e-02
-3.241635444066760796e-02
-3.158782783576838393e-02
-1.826299905644643284e-02
-3.057906770436170235e-02
-3.412922271905404620e-02
-3.936950047361344185e-02
-4.052026711302747497e-02
-4.588886696695788914e-02
-5.692049532986542121e-02
-5.643512428861649499e-02
-5.497651768182985899e-02
-6.599141811409142688e-02
-6.244625090932760803e-02
-5.521697208304868210e-02
-5.845059037262281126e-02
-3.912049375857576394e-02
-3.543844579800307926e-02
-3.069693295820773854e-02
-1.652778847489728975e-02
-1.412295333243877848e-02
-1.574457013766618341e-02
-1.082726038413547864e-02
-1.193866921541857085e-02
-2.100891005077310664e-02
-1.795040973649643379e-02
-3.110471456308300936e-02
-3.283375476435966556e-02
-3.506284505362292081e-02
-1.645643115746305701e-02
-1.224949540331409653e-02
-1.185064622410503254e-02
-2.859418322844247545e-02
-4.693645900912633839e-02
-4.478900161278849545e-02
-4.234972676085375226e-02
-5.028286014970249906e-02
-5.309326810600849267e-02
-6.196483915345306348e-02
-5.030958927668983949e-02
-6.439257051365274154e-02
-6.397337062571933908e-02
-6.037482374850716704e-02
-4.911068946802665813e-02
-5.780283954456574835e-02
-5.286584736264025863e-02
-7.904382862750951311e-02
-5.306293873766320529e-02
-1.518357396389274222e-02
9.051975189850736125e-03
-2.009464144013229508e-02
-2.482789099673665678e-02
-1.850657894457837654e-02
-1.960862652529699046e-02
-2.837524803829515052e-02
-3.174404362933496565e-02
-3.104837591623665558e-02
-3.048398574294111998e-02
-4.064564466424790828e-02
-2.408253242894914381e-02
-2.725354399366830549e-03
-2.707024196097755631e-02
-4.160119670134865277e-02
-2.588154999141842327e-02
-3.644662771422997605e-02
-6.726177422707094178e-02
-4.862757857969825237e-02
-5.584790242468019167e-02
-5.574206881398948571e-02
-4.387527075778173413e-02
-2.610376108188047772e-02
-1.452326139560166512e-02
-4.774786460277812700e-02
-6.453921769356869842e-02
-6.682862924872971788e-02
-6.114430457148206655e-02
-6.167330613896308822e-02
-7.142851839850199169e-02
-6.917974984505337321e-02
-5.464353533042775463e-02
-5.631188213773019591e-02
-6.965185674643020741e-02
-5.262372960327055260e-02
-4.395859988220288117e-02
-5.688949800621682928e-02
-4.038603238954554392e-02
-3.434635689009016279e-02
-2.937265045848110046e-02
-4.800963379767732297e-02
-4.174561110969202821e-02
-3.654771930623552240e-02
-3.630887575306251946e-02
-2.701045564165587692e-02
-3.635575102943078979e-02
-2.864449078253323427e-02
-3.973808122647283503e-02
-5.498142452639594169e-02
-5.412990144685875249e-02
-4.995481354647225009e-02
-3.968979530905769604e-02
-4.409061199150049459e-02
-6.148275914404556508e-02
-6.268425710270904283e-02
-8.207597562010232606e-02
-1.056064134446334235e-01
-9.107412258285603468e-02
-4.879572075453442875e-02
-2.965044044379644070e-02
-1.652940971873975706e-02
-4.336748811276917859e-02
-8.343956994962285767e-02
-1.099834374584273966e-01
-8.977441679658634821e-02
-6.279246115235874448e-02
-6.141906753860044282e-02
-5.225131991721501667e-02
-5.090056488282463515e-02
-5.059469256767502171e-02
-1.011574116326158235e-02
-2.730196049759239102e-02
-4.746996087752093640e-02
-6.529333870444632704e-02
-5.671679349150827998e-02
-6.118040132243750262e-02
-3.660531872510072726e-02
-3.283713664516541009e-02
-6.082193469037893568e-02
-7.123286181681766360e-02
-6.463544634821577484e-02
-5.334318140996666124e-02
-4.750091854062715724e-02
-3.519639165579889484e-02
-7.196633050906597884e-02
-5.064514701571495858e-02
-4.855583724448887806e-02
-3.784069412692209200e-02
-5.968028338681271444e-02
-6.756836421591221054e-02
-8.180126236138231255e-02
-9.477287828603528363e-02
-7.143399171993899954e-02
-5.975801618814216565e-02
-4.390017258730699590e-02
-4.186846968585145046e-02
-4.392687619594481951e-02
-1.682372816483795192e-02
-2.028087929982899662e-02
-1.980206182520882763e-02
-3.207744858564829521e-02
-4.092780308923071875e-02
-4.181875345292553753e-02
-3.030472154169860932e-02
-3.180930014127886923e-02
-1.271128595816892193e-02
-4.847434596226704584e-03
-2.144020277133489721e-02
-1.718461492134179189e-02
-2.611900794462585287e-02
-1.388281006267341397e-02
-1.517332186491690549e-02
-7.227977598622342681e-03
-1.168798682002947231e-02
-2.359717327837712597e-02
-3.364014140491557170e-02
-3.858329786044925602e-02
-3.414990917333790565e-02
-4.728635479408419690e-02
-6.044826344168213739e-02
-5.493329855001229112e-02
-5.781235972183806915e-02
-3.680176095370031597e-02
-1.227234597021907569e-02
-1.270844209367541500e-02
-1.914833465125978518e-02
-1.536182678082713415e-02
-2.747108444705805008e-02
-1.110425018735481523e-02
-3.423298889765345049e-02
1.260828356483209567e-04
-2.931969967106409086e-02
-2.179239925135896538e-02
1.663321625881486465e-02
4.523661297609871818e-02
3.837895041790716916e-02
2.063848517883370981e-02
-1.336490723973800254e-03
-7.002219278689200688e-03
9.042485862033058930e-03
1.532430410613188840e-02
2.867550795429642252e-02
2.641090836634066297e-02
2.836905857905677730e-03
4.947766286033938865e-03
8.518106434874134214e-03
2.048697188050466189e-02
1.046433999587204761e-02
7.543638410325639865e-04
-7.998106061331170663e-03
-2.279610278876895157e-02
-3.595430427928612144e-02
-3.581321537084365680e-02
-4.937783745761321896e-02
-5.628174147086095758e-02
-6.649128845383606157e-02
-5.484576915232204641e-02
-5.402084987644917985e-02
-4.322532431912083639e-02
-1.649880477140116056e-02
-7.454144937061597809e-03
-3.554448751014603614e-02
-4.737104735087699359e-02
-4.845140716408610770e-02
-2.452661746553520816e-02
-2.075934630845929774e-02
-2.292431118190590977e-02
-5.418291571143175889e-02
-1.225738311794517810e-03
9.737479201261559775e-03
-2.595586947846321296e-02
-1.395461317532576545e-02
-3.276188579696893977e-02
-5.719669347423284034e-02
-6.005092322512345371e-02
-5.535028818117335159e-02
-6.763731602927852693e-02
-6.686176669777196824e-02
-7.426964460618699915e-02
-7.469648997011354985e-02
-8.472128426703670612e-02
-8.924233546696878905e-02
-8.185930580050546079e-02
-7.103724277056050473e-02
-7.819621417208266756e-02
-1.040209463844748994e-01
-1.046100586257476123e-01
-9.773188428659704274e-02
-9.341648552780788817e-02
-8.541444366264830390e-02
-7.273099119729459217e-02
-5.518620566428865393e-02
-6.208219683617144380e-02
-6.872781397294580596e-02
-6.266166697373572181e-02
-2.011912976771472461e-02
-2.482556648437014846e-02
-5.323066603918082118e-02
-6.690236676921446080e-02
-7.268323573123416925e-02
-6.071123773592576600e-02
-7.100841903469834460e-02
-8.470616478976161767e-02
-5.166737897224332049e-02
-6.124653052698067479e-02
-6.712110926479163131e-02
-7.509129116159990458e-02
-8.267655870424940601e-02
-1.055885256823637791e-01
-1.165074576395152689e-01
-1.110026424516538934e-01
-9.586529670441722162e-02
-9.695574243164264971e-02
-1.139632062615468372e-01
-9.687638690828176413e-02
-8.941292652618615389e-02
-7.809177997017358042e-02
-6.880710828454333905e-02
-6.933157754941096651e-02
-6.130431371386517447e-02
-6.963419668402784368e-02
-7.782617966539578935e-02
-7.066702471253154261e-02
-7.030994832004421047e-02
-6.879483204676262176e-02
-6.984915620724597984e-02
-6.537362341927192844e-02
-5.727045592902132998e-02
-5.894090948525002038e-02
-6.071755496646748240e-02
-5.832696821034482476e-02
-5.433765779761821901e-02
-5.955864441787964148e-02
-6.562089544823968001e-02
-8.257835272057968690e-02
-8.288411516507680765e-02
-7.586041246696090257e-02
-7.239896772005147141e-02
-7.614447380482726457e-02
-7.420522038236161688e-02
-8.277781547397300432e-02
-8.021339077312542032e-02
-8.904003954494509043e-02
-1.000591982886518266e-01
-1.068245894083672543e-01
-1.227268617628786557e-01
-9.506614801337681664e-02
-8.549543416259779149e-02
-9.775270385687702401e-02
-9.448022063968086748e-02
-8.731655543732090574e-02
-9.313103532696165310e-02
-1.010771875729879199e-01
-9.828683970943757897e-02
-8.503162601684960409e-02
-6.152725760128487098e-02
-7.284247527868459304e-02
-6.711663775474288607e-02
-4.273421107902338617e-02
-3.690878248838341119e-02
-3.547212719878081733e-02
-2.243706312921828205e-02
1.630102478212012984e-03
2.477948892222132937e-02
5.421462844689048377e-02
3.722700827905982279e-02
5.425912999981458845e-02
5.554797670945230137e-02
6.653871536547077692e-02
8.194827530620951705e-02
1.176314675509009811e-01
1.491560536666100834e-01
1.572544450963874740e-01
1.480924447855074821e-01
1.780728475976333103e-01
2.209702055220873207e-01
2.740346978700732850e-01
3.001541771723155172e-01
2.867378201850775410e-01
3.761195291378556793e-01
4.271609371743061989e-01
4.332909604489547095e-01
4.443745647333148807e-01
4.998471906479650118e-01
5.407857308512402650e-01
5.908176157728353139e-01
6.145631485071669786e-01
6.603128215949592983e-01
6.969304602891911449e-01
7.246163216391759976e-01
7.433054647645171986e-01
7.543941706649390788e-01
7.165999884420937160e-01
6.989191294662637777e-01
6.813348856904912765e-01
6.773810473163428547e-01
6.815070883978999738e-01
6.507317919374960846e-01
6.160518393960048300e-01
5.255161838111630512e-01
4.510061524193290650e-01
4.184926478201506095e-01
3.398641078050753106e-01
2.964787974130405068e-01
2.357564807893509085e-01
1.735687636751103713e-01
1.275960281185135603e-01
1.177297111473218638e-01
1.173678614263283515e-01
9.310949632949667987e-02
8.902886571700582841e-02
6.555688447924774842e-02
5.341836544449551916e-02
4.309758918938731698e-02
3.683511403847069404e-02
5.854021806240958248e-02
4.411432392908334887e-02
4.390088304458348439e-02
3.120453900037061315e-02
1.965050694955748981e-02
2.117068185609488271e-02
2.987299208160770075e-02
2.512913841554221400e-02
4.016809260743634674e-02
2.764220574567584354e-02
2.268659630945085021e-02
2.087940641188529289e-02
8.087808152785744276e-03
-5.461101105391967178e-03
-1.393581850783783688e-02
-5.611608956514267665e-03
-1.771485037810708457e-02
-1.801957564396529377e-02
-8.896886247696800254e-03
-3.314074558557242312e-02
-4.727896316197585658e-02
-4.361112384274855314e-02
-4.866479165952520419e-02
-4.947695831582166193e-02
-5.479335655044316467e-02
-5.895889317516810058e-02
-5.904465376601884807e-02
-7.790685300721025830e-02
-2.776977318113140608e-02
-4.325029553776142677e-02
-3.575273416728385473e-02
-5.041080956394775742e-02
-4.603960018926296638e-02
-5.095175141862196000e-02
-5.513947156418734508e-02
-3.828843810045488155e-02
-5.372326489487905254e-03
-9.369083365052391366e-03
2.108284040188423969e-03
-5.042360469872941842e-04
-1.433049325187286949e-02
-8.013427251500254700e-03
-2.660972475505817697e-02
-5.872528238205318440e-02
-5.552512791707141238e-02
-3.264901369904646411e-02
-2.505158666812043119e-02
-3.573862191781876363e-02
-4.024207345445005024e-02
-2.401018028732145732e-02
-3.001005877565557020e-02
-2.847886136229756116e-02
-4.187407285691067960e-02
-5.564023707985701200e-02
-6.278458197292244303e-02
-6.121834034261140062e-02
-5.828298316365269210e-02
-5.980093388747213801e-02
-6.565607103297681213e-02
-5.575182456530908270e-02
-6.182547760210968524e-02
-5.852601528881815063e-02
-4.289013348078191123e-02
-4.939165146123799394e-02
-4.781181983866696072e-02
-2.635185585468328290e-04
-1.156328935627451079e-02
-3.062786743483829344e-02
-1.793164159632693044e-02
-1.558795253989674057e-02
-6.499002260528907726e-03
-3.807265278906915573e-03
-2.221084708611865965e-02
-5.945476041286998012e-03
-1.109546368409097122e-02
-3.121131744789020640e-02
-2.948234330327870190e-02
-1.625273069996199804e-02
-1.345466572403106187e-02
-9.223567658443163064e-03
-1.116369354296986582e-02
-2.240300560640150207e-02
-2.171887348778821225e-02
-3.636496130412243677e-02
-3.779918998947162656e-02
-3.983612270813439993e-02
-3.686024671856687890e-02
-4.692513213585644549e-03
6.905445127748786882e-03
-3.961867180376374420e-03
-4.480435180163003239e-02
-5.305845327839787962e-02
-3.444426329554901162e-02
-5.708000180186594344e-03
-2.144292162017192097e-03
3.896283577681625143e-03
-2.086067700991062895e-02
-3.359646149344827637e-02
-2.376231222858693481e-02
3.915411617799013921e-03
3.197253992861537331e-02
3.875767797716396512e-02
5.004810330420915443e-02
4.238697818909159531e-02
2.466855276620542881e-02
9.040904918487772599e-03
2.621961355559240120e-02
2.084436992918721476e-02
1.046670401156238328e-02
1.612528730791989995e-02
5.302844653375097389e-02
5.241124947499664621e-02
2.106656878881254386e-03
4.513011573654367170e-02
3.281255602876388677e-02
1.615651513696654551e-02
1.253706369503326118e-02
2.034498929918670401e-02
3.463867802941601737e-02
9.563987537987053700e-03
1.596831596188366675e-02
-1.394794919544679879e-02
-1.215890482271632378e-02
2.177676713744931131e-03
-1.201632083951995750e-02
5.645346873116479508e-02
6.091425527713784094e-02
5.806799851706617721e-02
6.670617315107706113e-02
8.101682288354104811e-02
8.860100185607613921e-02
5.911731398496901380e-02
6.678495106231260858e-02
7.535351206333475160e-02
7.664955422404590157e-02
7.983934504913303698e-02
8.266573340465006858e-02
5.985225757921944223e-02
4.952455504985411872e-02
6.026104828220973930e-02
5.926844275113285487e-02
5.719077278098270989e-02
6.243842322437047343e-02
5.980388544559977343e-02
6.518737392920440077e-02
5.094500898110111003e-02
5.223096121308159340e-02
4.550720401175577939e-02
4.558302869122159151e-02
4.634881862529093705e-02
5.487391784995251931e-02
2.662350194538339043e-02
2.100896078477119608e-02
1.954671655969354022e-02
4.388327112202522473e-02
5.303157867746242232e-02
7.686032006383955451e-02
5.392877332746310454e-02
5.673146317160895208e-02
6.593440322374177764e-02
7.545383009616912773e-02
5.247793474333894981e-02
6.520887407358839927e-02
6.028530879812016990e-02
6.855481932447057836e-02
6.610338365007012440e-02
6.662787847498494176e-02
7.795387745344638242e-02
7.327412281486599122e-02
5.002582365995628805e-02
5.012963803349253927e-02
5.106384443779304894e-02
4.969273626570602787e-02
4.266632506102679273e-02
3.573437782133546958e-02
4.067649462127002208e-02
4.597721699118702265e-02
2.801724674324287956e-02
3.254388046442902027e-03
-8.101895333607486704e-03
-2.192358835466151623e-02
-3.579010593198447832e-02
-1.803783627992869287e-02
-8.799368661753799448e-03
-2.988985178830895831e-03
1.832684463159650265e-02
-4.417099716822806693e-03
1.222786695999816819e-03
3.187382855262042847e-02
4.782262513312822427e-02
1.130563889202022831e-02
3.553946993972302570e-02
3.317736697144170466e-02
2.453813899292081949e-02
1.944594537772720982e-02
1.990415015215888164e-02
3.151016339967774305e-02
3.325228649960923488e-02
1.456305778173827559e-02
1.706296259638956370e-02
2.835876279073168416e-02
2.020233635671252193e-02
8.356475686424010008e-03
9.964286309304088568e-03
-6.378007030266625785e-03
-3.639993477655090182e-03
-1.495068324031589846e-02
-5.002059702990106771e-02
-4.782769217890465302e-02
-2.569587284331377453e-02
-2.923986858345666018e-02
-4.067690706999448763e-02
-4.988712460752800504e-02
-5.966089274123635711e-02
-5.189259994504515083e-02
-5.366724559960712321e-02
-4.795778159707786426e-02
-3.802607976674282630e-02
-4.902052419107595649e-02
-5.726342200801920468e-02
-3.569277154053057677e-02
-2.504219627799011971e-02
-2.245179268189938238e-02
-1.352977341476156031e-02
4.764007046530936013e-03
-2.914896227560065389e-02
-3.944726988391215883e-02
-2.730594684884610213e-02
-3.952492823990111370e-02
-3.695127601186443123e-02
-2.939097482009815632e-02
-3.189365609087206621e-02
-3.224382138521221519e-02
-4.517485488774181102e-02
-4.754091040955794878e-02
-5.428309867371055447e-02
-5.755992759678307119e-02
-6.692643882670980260e-02
-7.244184715563903310e-02
-6.865332669849040503e-02
-7.107085727692982746e-02
-8.336313344677324932e-02
-7.561179312061783175e-02
-8.323704036686377372e-02
-9.412577726120983923e-02
-1.018606825360739293e-01
-1.158582066559302459e-01
-8.939780979731232202e-02
-6.862315662284534934e-02
-7.310951488185710168e-02
-7.099582292071944523e-02
-8.087800795754150618e-02
-5.881899800276373103e-02
-3.437915274815388222e-02
-2.555632931817752168e-02
-5.930980975521849691e-02
-5.372098387942536579e-02
-4.519962015519339571e-02
-3.419837485808974176e-02
-5.411894870871056251e-03
-2.553885690852512880e-02
-6.317519359980022786e-02
-5.434956124012028933e-02
-3.239374090393363353e-02
2.480387892989592558e-03
-3.070919557342765074e-02
-6.287902353238902786e-02
-8.937449776934744405e-02
-7.099157445114553933e-02
-7.163113799873412069e-02
-7.013866118342851341e-02
-6.939674700851504452e-02
-7.067131737654827606e-02
-8.458080153924735223e-02
-6.356033236068581171e-02
-6.374059466580073163e-02
-6.778039243906425204e-02
-8.255412408197734808e-02
-8.483025849214652359e-02
-8.489048922485419035e-02
-7.187638958824862923e-02
-7.385175228279027004e-02
-5.804259571350067065e-02
-5.077517575354207474e-02
-5.549563375275021887e-02
-5.675607336453657170e-02
-5.246381404597477704e-02
-2.173454846772061855e-02
-2.727246371526733520e-02
-4.202093477537205413e-02
-2.276943679884029653e-02
-4.257140089791044968e-02
-2.989858723405262528e-02
-1.549348683591042150e-02
-8.188981186457663236e-03
-3.258867905539995086e-02
-4.503608422321753180e-02
-3.726494895643189809e-02
-4.024366377278680573e-02
-4.774750581528114379e-02
-4.340221371122603145e-02
-6.903710492867604076e-02
-6.053947865282673785e-02
-6.811538304343862926e-02
-7.240453023197722382e-02
-8.095441394731610341e-02
-8.050578781016023977e-02
-7.012213752074064610e-02
-6.101876367447663096e-02
-5.939086170074695664e-02
-3.513474913006208594e-02
-4.783590790957534949e-02
-7.057294502624814059e-02
-5.216459792328847350e-02
-5.874473287881652045e-02
-2.914526697103274333e-02
-2.016673350946409510e-02
-4.815839939604672770e-02
-5.327449585913129892e-02
-4.158578898001127899e-02
-4.725375883045730696e-02
-3.381343892314223054e-02
-9.858358415806560415e-03
-4.345736613902202727e-03
-3.082640408940875293e-03
-1.097506044440788725e-02
-1.902809928371868020e-02
-2.564829383255349052e-02
-4.194783889828927054e-02
-4.278711746737449972e-02
-5.708736135786145888e-02
-4.039175066814756215e-02
-4.617840394987390851e-02
-5.004849364074764884e-02
-4.434809044328658079e-02
-6.765650548234738992e-02
-9.086942482497831208e-02
-6.503392843752849040e-02
-7.215409351698967577e-02
-6.228163097819570948e-02
-5.519093065211136406e-02
-5.885793742939823825e-02
-5.214314948908802677e-02
-6.344869420763665779e-02
-6.933978089107299680e-02
-8.406038299885429388e-02
-8.129296634644161967e-02
-4.590439847529707851e-02
-4.542381884213578247e-02
-4.174897855307717343e-02
-3.879658830839214506e-02
-8.998977418773181081e-03
-1.872345636366827201e-02
-3.559473149233850775e-02
-4.876502967900289004e-02
-2.865534569489053274e-02
-2.735985616905872025e-02
-3.650201559432769693e-02
-4.082475502825021196e-02
-4.013687341921741425e-02
-2.120062830637520213e-02
-6.382994608661619884e-02
-5.177211025143818590e-02
-7.481639226981007251e-02
-6.577004781872769490e-02
-6.551335101204912303e-02
-7.571018678599353291e-02
-8.357737596637737632e-02
-7.864161578711034717e-02
-9.108758485149114070e-02
-9.775105553295906913e-02
-8.551680381192720837e-02
-8.492234847443375090e-02
-1.020007912168375414e-01
-8.972375599115110789e-02
-7.518975968544250321e-02
-6.576452981239991336e-02
-5.297852602153596546e-02
-7.031166830356087860e-02
-9.226915195622793775e-02
-5.245968341447240779e-02
-3.794739886940881601e-02
-3.199842858159965969e-02
-4.102516947969257755e-02
-4.640769627559070132e-02
-2.620485273022118977e-02
-2.061292118221987046e-02
-2.473178188137648004e-02
-2.367590677258784443e-02
-2.847595872704436482e-02
-4.925168187258125579e-02
-4.432014951986327361e-02
-5.350593852049553845e-02
-7.414293300689323019e-02
-8.218360254124332243e-02
-6.544606909804637218e-02
-7.281792378491783180e-02
-8.724508665729242829e-02
-8.974533304592041683e-02
-9.063991001019433558e-02
-9.364666746783557871e-02
-8.926568208927261605e-02
-8.925200583149836553e-02
-8.392608025116897463e-02
-8.295873854383831181e-02
-7.988491091876523398e-02
-9.625756948697740401e-02
-8.969742894760160401e-02
-7.784666321748466566e-02
-4.372836812845231486e-02
-3.160578383296770710e-02
-1.862978906865154008e-02
-4.349711991522938609e-02
-4.923116895788470088e-02
-5.412443350935111641e-02
-5.555335940718711396e-02
-5.534549075988109967e-02
-4.335780551870765942e-02
-4.456004887984796325e-02
-4.686574755229630518e-02
-1.233034452565558159e-02
-3.666786966915358548e-02
-4.382180756144172379e-02
-4.950592515603327581e-02
-5.754772515982721492e-02
-6.875212659487030253e-02
-7.741753318432334496e-02
-7.871969216065585750e-02
-9.078686766323904034e-02
-1.021293429011507492e-01
-1.036832639496484548e-01
-7.082674073135025727e-02
-6.346062680919971333e-02
-9.307044271657990975e-02
-1.349926771848094786e-01
-8.675909719317162483e-02
-4.213933787896354671e-02
-5.556902836785272692e-02
-5.634811023911842631e-02
-6.347174634519993364e-02
-5.900238605250217316e-02
-4.522867551293992261e-02
-3.407281631378433762e-02
-5.321881230437167098e-02
-5.999073518117265663e-02
-3.507492262473372452e-02
-5.123859569536889924e-02
-5.520945693283399458e-02
-2.401062485873944191e-02
-2.709537216284388372e-02
-1.602728991343713855e-02
-2.331410276135539861e-02
-6.019410723726333762e-02
-7.277276909021246354e-02
-5.229819508252991217e-02
-2.085958419771155592e-02
-1.583341179844327540e-02
-2.052650838159195135e-02
-1.435322568573915714e-02
-4.071867447227092707e-02
-7.836816647632495469e-02
-6.076221218127322854e-02
-5.241561445266428726e-02
-5.878309743687582661e-02
-4.923410706199939785e-02
-2.989789767577242380e-02
-4.880298001930684360e-02
-4.498477713843866688e-02
-3.602226785953827753e-02
-2.487140925124348839e-02
-2.592449655883274223e-02
-1.721414594980168883e-02
9.267744660234646104e-04
-9.703602722750609769e-04
6.435403254909792189e-03
-9.749264297091303488e-03
-1.034406108418911563e-02
-1.956015520610132619e-02
-1.717058434677740109e-02
-6.904660074995433439e-03
5.415047946027110037e-03
2.153301842681286382e-02
8.922075813731174254e-03
-6.544651541018957353e-03
-1.156530651679429575e-02
3.981480474160394023e-03
1.299983293040728183e-03
5.663149238128065144e-03
-7.645346472042388597e-03
7.120283616289302397e-03
-1.082938098937553939e-02
-1.940842490410346274e-02
-3.358934883501579760e-02
-9.184381492924525991e-03
-1.971553288417159794e-02
-1.262532602667130327e-02
1.619753737929583576e-02
1.067742602551260966e-02
-6.107186203833256388e-03
-1.005232608261324989e-02
2.384864189537713730e-02
3.230108153888206629e-02
-1.203138587388676017e-02
-2.643271142713572025e-02
-3.709147094068640516e-02
-1.941515119202655293e-02
-1.380833562543652693e-02
-1.123844417091527520e-02
-6.231678889995068138e-04
1.441901411599125216e-02
1.018318846863722205e-03
-1.667011041509764216e-02
-2.837446118139728968e-02
-1.379433059731910091e-02
-6.145075988722208116e-03
-1.058228095482546122e-02
-2.892396756262515661e-02
-4.415071159004468893e-02
-5.154508930978655978e-02
-5.332147005592621780e-02
-5.563107490683620593e-02
-6.171219479411736708e-02
-7.146489901042706039e-02
-7.607605811897798220e-02
-8.072114124675056068e-02
-8.874532148363531436e-02
-8.149798349055506486e-02
-8.621569883076547758e-02
-4.774246168873255702e-02
-2.486969529554024227e-02
-4.796521905067087366e-02
-7.602842329385529896e-02
-7.119844411981314514e-02
-6.439859961341221073e-02
-6.466275999464796143e-02
-6.560728529277778942e-02
-6.436800032196926535e-02
-5.833330998201538553e-02
-6.973063733682519083e-02
-4.147264152149356120e-02
-2.600680612948652604e-02
-2.965345877670658159e-02
-5.544880804826829435e-02
-4.889111958494023191e-02
-5.692834213610417637e-02
-6.745028118146575991e-02
-7.808781906570719245e-02
-8.334274925727064298e-02
-8.102642935420040216e-02
-7.974778432232472458e-02
-9.513027310141805581e-02
-9.488104421028885349e-02
-1.034060604320935495e-01
-8.813333363827337286e-02
-8.716068405520641105e-02
-1.046930086784344238e-01
-1.060475844265563738e-01
-1.146264531392350572e-01
-1.242869216485993356e-01
-1.310174516214426543e-01
-1.288155759846636716e-01
-1.006321545972367337e-01
-8.832794275413341500e-02
-7.652589294869038827e-02
-8.699784386579287321e-02
-3.254016214203209190e-02
6.216455632744380400e-04
-2.231078404516092378e-02
-4.394414816873234986e-02
-7.952664205152273902e-02
-6.534795823876188292e-02
-4.271516904423425243e-02
-4.633753203576847224e-02
-6.122501229706363290e-02
-6.396740328155220423e-02
-6.392714745762390072e-02
-7.846923514024140012e-02
-7.761936910253938726e-02
-7.204798437575105075e-02
-7.601560971348440832e-02
-8.232596637179466492e-02
-8.714012060504358614e-02
-8.384263295892149803e-02
-9.110191793155598960e-02
-9.383334331563993047e-02
-1.214180691658122702e-01
-1.098508944549044936e-01
-1.108673770637161882e-01
-1.213424193215269231e-01
-1.130773781022474805e-01
-1.227543841233272037e-01
-1.069721890445999024e-01
-1.019932556211053110e-01
-9.383283765644620522e-02
-9.562021189732729243e-02
-1.036133878511129869e-01
-1.122990247686406762e-01
-1.075706625968973207e-01
-1.061927354491105230e-01
-1.172035562871450720e-01
-9.907865335974258558e-02
-1.000575736475357580e-01
-1.025713575513410303e-01
-8.210526725227204614e-02
-6.449903824801787866e-02
-6.003152211522178733e-02
-6.035390363953025555e-02
-7.509633473519798652e-02
-9.061997931944523743e-02
-5.252411334899938222e-02
-3.479094748369590540e-02
-2.932852304479920819e-02
-2.080877323000399071e-02
1.321977916549271076e-02
9.707362458803407354e-03
3.293522162482049459e-02
3.791662658403041619e-02
1.669264027705927300e-02
7.972747774026955891e-03
2.186108618372643864e-02
7.314172682358563438e-02
1.096170248820678983e-01
1.359656519647668982e-01
1.549956530981337621e-01
1.737499467760766081e-01
1.690562574562018694e-01
2.167886885445082790e-01
2.526463261280875172e-01
2.942768525559281700e-01
3.267268172611741961e-01
3.869618648258935090e-01
4.425506642975723381e-01
4.721237096958942336e-01
5.108353104232583597e-01
5.772050428451719339e-01
6.251884592804781704e-01
6.217087203339987100e-01
6.779313947754721514e-01
6.962808418180276293e-01
7.185190515251452803e-01
7.366514351306100439e-01
7.330495700534002124e-01
7.164738431671008323e-01
7.025019813259203438e-01
6.852904792334524320e-01
6.957531671559714637e-01
6.501323706471771047e-01
6.274928927277609869e-01
5.684340416723235867e-01
4.959435077700617978e-01
4.308727922097971286e-01
3.724326526201293119e-01
3.408485901854244604e-01
2.841702917472188061e-01
2.125732712694204107e-01
1.485686471389318086e-01
1.361621647091879883e-01
1.198148113756223043e-01
1.051277421433156195e-01
8.819295020368334015e-02
8.145211057670004307e-02
7.674849376825484959e-02
6.967722883070258388e-02
6.266061978455723935e-02
4.114985582022863408e-02
4.636016122892614583e-02
5.507165602176248426e-02
5.995247631725172249e-02
3.813467804140321937e-02
4.552814582479226824e-02
3.757904157518170141e-02
4.415996638663786944e-02
5.024285054823045271e-02
2.894927270261478044e-02
4.636275392871902143e-03
2.064905907714173483e-03
1.135586387640435263e-02
-1.369357997504927482e-03
-1.293531735900099733e-02
-2.235929899540868571e-02
-3.721570659693798633e-02
-5.329929414001939592e-02
-4.290842363176086693e-02
-5.885120626439571678e-02
-5.499280049900313189e-02
-6.433464320490595023e-02
-5.401769529302785644e-02
-6.766958416117330177e-02
-6.266742611208012126e-02
-6.472307645525639253e-02
-6.599038770240327201e-02
-7.689823827323390149e-02
-9.937477020216027579e-02
-6.156103306098696659e-02
-4.573668433716557291e-02
-2.338956567987921648e-02
-1.748800351986978807e-02
-1.590066443410814712e-02
-3.304679135479091090e-03
-1.044719930654997020e-03
-1.512840479593650922e-02
-2.258486305152823670e-02
-1.864598612694555457e-02
-2.297238351849346244e-02
-1.530294857508768432e-02
-2.634733472624239264e-02
-4.277118083842297580e-02
-3.455728441983391824e-02
-3.377741168102765118e-02
-4.224802926722749652e-02
-5.198770913922024645e-02
-4.843159318721117212e-02
-5.202235673791517218e-02
-7.169154735401016276e-02
-7.726251746266245279e-02
-9.807318304247122920e-02
-6.175912069993388237e-02
-4.970856459424294327e-02
-6.176602759400671994e-02
-7.236603650810546906e-02
-5.717983744675951552e-02
-3.168869482279285110e-02
-3.268407626443067121e-02
-5.450316756358956904e-02
-6.091902867078955591e-02
-5.349129275748829015e-02
-4.886302409582676809e-02
-4.283093832807216561e-02
-5.560497125284669107e-02
-4.503611132750794110e-02
-1.679166325690886752e-02
-6.618101016916864976e-03
1.010073143791372779e-02
-1.657746233946392686e-02
-2.551110437445761742e-02
-3.261533089220069320e-02
2.829718700631971007e-03
3.671586539137433602e-03
-5.443483634397033866e-03
-2.512887987243483945e-02
-1.454036924324657309e-02
-1.381232944455410006e-02
-1.260091591990898652e-03
-1.779535454945065445e-02
-3.748166402123125074e-02
-5.345802095687612193e-02
-6.563262358284711884e-02
-5.387796982632290371e-02
-4.154454891526978416e-02
-2.854203622436610188e-02
-3.910865955248592901e-02
-1.550469970205767267e-02
-8.249706727483437085e-03
-2.799521089265815527e-02
-4.136372466448130086e-02
-4.455081736280139953e-02
-4.217990642634977805e-02
-1.226186227662968975e-02
2.411710459891478614e-02
8.038334122095869283e-03
7.295172218572815170e-03
-3.393848837020346787e-03
5.416208267546393507e-03
4.875735490234331393e-03
-1.807473037982964409e-02
-2.533435855831895483e-03
-1.243193119772148178e-02
1.185275894434370536e-02
3.254003061651175588e-02
3.563417023877937795e-02
4.698511315536943456e-02
2.283197617197599977e-02
7.548591401074521146e-03
-1.450599241697034247e-02
2.150024838933513316e-03
4.205026241877198728e-02
3.998315669785591775e-02
2.175645290067535625e-02
1.857057692888686162e-03
1.106386803270562047e-02
2.218823941484207585e-02
2.050873258711627400e-02
-3.348695897914116815e-04
-7.556700725090376158e-03
1.542470681593227991e-02
3.656235373464267191e-02
2.808660985418623413e-02
2.792508159320065270e-02
